# E(GeV)	Re_Tmatrix(GeV^-2)
0.000000	-9.854100e+00
0.010000	-9.860110e+00
0.020000	-9.866120e+00
0.030000	-9.872120e+00
0.040000	-9.878130e+00
0.050000	-9.884140e+00
0.060000	-9.890310e+00
0.070000	-9.896550e+00
0.080000	-9.902840e+00
0.090000	-9.909200e+00
0.100000	-9.915630e+00
0.110000	-9.922100e+00
0.120000	-9.928650e+00
0.130000	-9.935260e+00
0.140000	-9.941930e+00
0.150000	-9.948680e+00
0.160000	-9.955480e+00
0.170000	-9.962350e+00
0.180000	-9.969300e+00
0.190000	-9.976320e+00
0.200000	-9.983420e+00
0.210000	-9.990570e+00
0.220000	-9.997810e+00
0.230000	-1.000510e+01
0.240000	-1.001250e+01
0.250000	-1.002000e+01
0.260000	-1.002750e+01
0.270000	-1.003520e+01
0.280000	-1.004290e+01
0.290000	-1.005070e+01
0.300000	-1.005850e+01
0.310000	-1.006650e+01
0.320000	-1.007450e+01
0.330000	-1.008270e+01
0.340000	-1.009090e+01
0.350000	-1.009930e+01
0.360000	-1.010770e+01
0.370000	-1.011620e+01
0.380000	-1.012480e+01
0.390000	-1.013350e+01
0.400000	-1.014230e+01
0.410000	-1.015120e+01
0.420000	-1.016020e+01
0.430000	-1.016940e+01
0.440000	-1.017860e+01
0.450000	-1.018800e+01
0.460000	-1.019740e+01
0.470000	-1.020700e+01
0.480000	-1.021670e+01
0.490000	-1.022650e+01
0.500000	-1.023640e+01
0.510000	-1.024650e+01
0.520000	-1.025670e+01
0.530000	-1.026700e+01
0.540000	-1.027740e+01
0.550000	-1.028800e+01
0.560000	-1.029840e+01
0.570000	-1.030910e+01
0.580000	-1.032020e+01
0.590000	-1.033150e+01
0.600000	-1.034310e+01
0.610000	-1.035590e+01
0.620000	-1.036860e+01
0.630000	-1.038120e+01
0.640000	-1.039360e+01
0.650000	-1.040590e+01
0.660000	-1.041700e+01
0.670000	-1.042850e+01
0.680000	-1.044030e+01
0.690000	-1.045250e+01
0.700000	-1.046510e+01
0.710000	-1.047820e+01
0.720000	-1.049160e+01
0.730000	-1.050520e+01
0.740000	-1.051900e+01
0.750000	-1.053310e+01
0.760000	-1.054730e+01
0.770000	-1.056170e+01
0.780000	-1.057640e+01
0.790000	-1.059130e+01
0.800000	-1.060650e+01
0.810000	-1.062180e+01
0.820000	-1.063750e+01
0.830000	-1.065340e+01
0.840000	-1.066950e+01
0.850000	-1.068600e+01
0.860000	-1.070270e+01
0.870000	-1.071960e+01
0.880000	-1.073690e+01
0.890000	-1.075460e+01
0.900000	-1.077250e+01
0.910000	-1.079070e+01
0.920000	-1.080920e+01
0.930000	-1.082820e+01
0.940000	-1.084740e+01
0.950000	-1.086710e+01
0.960000	-1.088700e+01
0.970000	-1.090740e+01
0.980000	-1.092820e+01
0.990000	-1.094940e+01
1.000000	-1.097100e+01
1.010000	-1.099290e+01
1.020000	-1.101520e+01
1.030000	-1.103810e+01
1.040000	-1.106150e+01
1.050000	-1.108550e+01
1.060000	-1.110980e+01
1.070000	-1.113470e+01
1.080000	-1.116030e+01
1.090000	-1.118640e+01
1.100000	-1.121310e+01
1.110000	-1.124010e+01
1.120000	-1.126790e+01
1.130000	-1.129640e+01
1.140000	-1.132560e+01
1.150000	-1.135560e+01
1.160000	-1.138590e+01
1.170000	-1.141720e+01
1.180000	-1.144930e+01
1.190000	-1.148220e+01
1.200000	-1.151600e+01
1.210000	-1.155030e+01
1.220000	-1.158560e+01
1.230000	-1.162200e+01
1.240000	-1.165940e+01
1.250000	-1.169790e+01
1.260000	-1.173720e+01
1.270000	-1.177760e+01
1.280000	-1.181930e+01
1.290000	-1.186220e+01
1.300000	-1.190630e+01
1.310000	-1.195100e+01
1.320000	-1.199720e+01
1.330000	-1.204500e+01
1.340000	-1.209430e+01
1.350000	-1.214520e+01
1.360000	-1.219700e+01
1.370000	-1.225060e+01
1.380000	-1.230610e+01
1.390000	-1.236340e+01
1.400000	-1.242260e+01
1.410000	-1.248290e+01
1.420000	-1.254540e+01
1.430000	-1.261010e+01
1.440000	-1.267690e+01
1.450000	-1.274590e+01
1.460000	-1.281650e+01
1.470000	-1.288950e+01
1.480000	-1.296500e+01
1.490000	-1.304290e+01
1.500000	-1.312330e+01
1.510000	-1.320570e+01
1.520000	-1.329070e+01
1.530000	-1.337840e+01
1.540000	-1.346880e+01
1.550000	-1.356170e+01
1.560000	-1.365770e+01
1.570000	-1.375610e+01
1.580000	-1.385700e+01
1.590000	-1.396030e+01
1.600000	-1.406600e+01
1.610000	-1.417610e+01
1.620000	-1.428760e+01
1.630000	-1.440070e+01
1.640000	-1.451520e+01
1.650000	-1.463130e+01
1.660000	-1.475320e+01
1.670000	-1.487440e+01
1.680000	-1.499490e+01
1.690000	-1.511480e+01
1.700000	-1.523390e+01
1.710000	-1.536070e+01
1.720000	-1.548260e+01
1.730000	-1.559970e+01
1.740000	-1.571190e+01
1.750000	-1.581930e+01
1.760000	-1.593430e+01
1.770000	-1.603820e+01
1.780000	-1.613100e+01
1.790000	-1.621250e+01
1.800000	-1.628290e+01
1.810000	-1.635670e+01
1.820000	-1.641200e+01
1.830000	-1.644880e+01
1.840000	-1.646720e+01
1.850000	-1.646720e+01
1.860000	-1.645880e+01
1.870000	-1.642690e+01
1.880000	-1.637150e+01
1.890000	-1.629260e+01
1.900000	-1.619020e+01
1.910000	-1.606210e+01
1.920000	-1.591150e+01
1.930000	-1.573860e+01
1.940000	-1.554320e+01
1.950000	-1.532550e+01
1.960000	-1.506830e+01
1.970000	-1.479720e+01
1.980000	-1.451230e+01
1.990000	-1.421350e+01
2.000000	-1.390080e+01
2.010000	-1.355040e+01
2.020000	-1.319810e+01
2.030000	-1.284380e+01
2.040000	-1.248760e+01
2.050000	-1.212940e+01
2.060000	-1.174990e+01
2.070000	-1.137820e+01
2.080000	-1.101410e+01
2.090000	-1.065780e+01
2.100000	-1.030920e+01
2.110000	-9.958520e+00
2.120000	-9.620440e+00
2.130000	-9.294990e+00
2.140000	-8.982150e+00
2.150000	-8.681930e+00
2.160000	-8.392960e+00
2.170000	-8.117280e+00
2.180000	-7.854920e+00
2.190000	-7.605860e+00
2.200000	-7.370110e+00
2.210000	-7.150830e+00
2.220000	-6.943270e+00
2.230000	-6.747440e+00
2.240000	-6.563330e+00
2.250000	-6.390950e+00
2.260000	-6.234920e+00
2.270000	-6.088300e+00
2.280000	-5.951080e+00
2.290000	-5.823280e+00
2.300000	-5.704890e+00
2.310000	-5.600270e+00
2.320000	-5.502880e+00
2.330000	-5.412710e+00
2.340000	-5.329770e+00
2.350000	-5.254060e+00
2.360000	-5.189860e+00
2.370000	-5.130740e+00
2.380000	-5.076700e+00
2.390000	-5.027730e+00
2.400000	-4.983840e+00
2.410000	-4.947480e+00
2.420000	-4.914970e+00
2.430000	-4.886310e+00
2.440000	-4.861490e+00
2.450000	-4.840530e+00
2.460000	-4.825810e+00
2.470000	-4.813740e+00
2.480000	-4.804320e+00
2.490000	-4.797560e+00
2.500000	-4.793450e+00
2.510000	-4.793750e+00
2.520000	-4.795830e+00
2.530000	-4.799680e+00
2.540000	-4.805300e+00
2.550000	-4.812690e+00
2.560000	-4.823070e+00
2.570000	-4.834620e+00
2.580000	-4.847330e+00
2.590000	-4.861190e+00
2.600000	-4.876220e+00
2.610000	-4.893320e+00
2.620000	-4.911120e+00
2.630000	-4.929620e+00
2.640000	-4.948830e+00
2.650000	-4.968750e+00
2.660000	-4.990320e+00
2.670000	-5.012120e+00
2.680000	-5.034140e+00
2.690000	-5.056400e+00
2.700000	-5.078880e+00
2.710000	-5.101910e+00
2.720000	-5.125010e+00
2.730000	-5.148170e+00
2.740000	-5.171400e+00
2.750000	-5.194710e+00
2.760000	-5.218570e+00
2.770000	-5.242260e+00
2.780000	-5.265770e+00
2.790000	-5.289090e+00
2.800000	-5.312230e+00
2.810000	-5.335450e+00
2.820000	-5.358360e+00
2.830000	-5.380950e+00
2.840000	-5.403230e+00
2.850000	-5.425200e+00
2.860000	-5.447060e+00
2.870000	-5.468500e+00
2.880000	-5.489520e+00
2.890000	-5.510120e+00
2.900000	-5.530310e+00
2.910000	-5.550170e+00
2.920000	-5.569570e+00
2.930000	-5.588500e+00
2.940000	-5.606960e+00
2.950000	-5.624960e+00
2.960000	-5.642530e+00
2.970000	-5.659610e+00
2.980000	-5.676210e+00
2.990000	-5.692320e+00
3.000000	-5.707940e+00
3.010000	-5.723050e+00
3.020000	-5.737690e+00
3.030000	-5.751860e+00
3.040000	-5.765560e+00
3.050000	-5.778790e+00
3.060000	-5.791500e+00
3.070000	-5.803770e+00
3.080000	-5.815610e+00
3.090000	-5.827000e+00
3.100000	-5.837960e+00
3.110000	-5.848350e+00
3.120000	-5.858370e+00
3.130000	-5.868020e+00
3.140000	-5.877290e+00
3.150000	-5.886180e+00
3.160000	-5.894590e+00
3.170000	-5.902680e+00
3.180000	-5.910460e+00
3.190000	-5.917910e+00
3.200000	-5.925040e+00
3.210000	-5.931710e+00
3.220000	-5.938130e+00
3.230000	-5.944300e+00
3.240000	-5.950220e+00
3.250000	-5.955900e+00
3.260000	-5.961200e+00
3.270000	-5.966310e+00
3.280000	-5.971240e+00
3.290000	-5.975980e+00
3.300000	-5.980540e+00
3.310000	-5.984800e+00
3.320000	-5.988920e+00
3.330000	-5.992930e+00
3.340000	-5.996810e+00
3.350000	-6.000560e+00
3.360000	-6.004080e+00
3.370000	-6.007520e+00
3.380000	-6.010900e+00
3.390000	-6.014220e+00
3.400000	-6.017460e+00
3.410000	-6.020550e+00
3.420000	-6.023620e+00
3.430000	-6.026670e+00
3.440000	-6.029680e+00
3.450000	-6.032680e+00
3.460000	-6.035570e+00
3.470000	-6.038480e+00
3.480000	-6.041390e+00
3.490000	-6.044320e+00
3.500000	-6.047270e+00
3.510000	-6.050160e+00
3.520000	-6.053100e+00
3.530000	-6.056080e+00
3.540000	-6.059110e+00
3.550000	-6.062170e+00
3.560000	-6.065240e+00
3.570000	-6.068360e+00
3.580000	-6.071560e+00
3.590000	-6.074810e+00
3.600000	-6.078130e+00
3.610000	-6.081500e+00
3.620000	-6.084940e+00
3.630000	-6.088450e+00
3.640000	-6.092040e+00
3.650000	-6.095690e+00
3.660000	-6.099350e+00
3.670000	-6.103110e+00
3.680000	-6.106980e+00
3.690000	-6.110940e+00
3.700000	-6.115010e+00
3.710000	-6.119210e+00
3.720000	-6.123500e+00
3.730000	-6.127870e+00
3.740000	-6.132330e+00
3.750000	-6.136880e+00
3.760000	-6.141510e+00
3.770000	-6.146220e+00
3.780000	-6.151030e+00
3.790000	-6.155940e+00
3.800000	-6.160930e+00
3.810000	-6.166010e+00
3.820000	-6.171180e+00
3.830000	-6.176450e+00
3.840000	-6.181800e+00
3.850000	-6.187250e+00
3.860000	-6.192800e+00
3.870000	-6.198440e+00
3.880000	-6.204160e+00
3.890000	-6.209970e+00
3.900000	-6.215870e+00
3.910000	-6.221860e+00
3.920000	-6.227930e+00
3.930000	-6.234080e+00
3.940000	-6.240320e+00
3.950000	-6.246630e+00
3.960000	-6.253040e+00
3.970000	-6.259520e+00
3.980000	-6.266080e+00
3.990000	-6.272710e+00
4.000000	-6.279420e+00
4.010000	-6.286210e+00
4.020000	-6.293070e+00
4.030000	-6.300000e+00
4.040000	-6.306990e+00
4.050000	-6.314050e+00
4.060000	-6.321200e+00
4.070000	-6.328400e+00
4.080000	-6.335660e+00
4.090000	-6.342980e+00
4.100000	-6.350350e+00
4.110000	-6.357800e+00
4.120000	-6.365290e+00
4.130000	-6.372830e+00
4.140000	-6.380410e+00
4.150000	-6.388040e+00
4.160000	-6.395730e+00
4.170000	-6.403460e+00
4.180000	-6.411230e+00
4.190000	-6.419030e+00
4.200000	-6.426880e+00
4.210000	-6.434780e+00
4.220000	-6.442720e+00
4.230000	-6.450680e+00
4.240000	-6.458670e+00
4.250000	-6.466690e+00
4.260000	-6.474750e+00
4.270000	-6.482830e+00
4.280000	-6.490940e+00
4.290000	-6.499060e+00
4.300000	-6.507200e+00
4.310000	-6.515380e+00
4.320000	-6.523570e+00
4.330000	-6.531770e+00
4.340000	-6.539990e+00
4.350000	-6.548210e+00
4.360000	-6.556470e+00
4.370000	-6.564720e+00
4.380000	-6.572990e+00
4.390000	-6.581250e+00
4.400000	-6.589520e+00
4.410000	-6.597820e+00
4.420000	-6.606110e+00
4.430000	-6.614390e+00
4.440000	-6.622670e+00
4.450000	-6.630950e+00
4.460000	-6.639220e+00
4.470000	-6.647490e+00
4.480000	-6.655750e+00
4.490000	-6.664000e+00
4.500000	-6.672230e+00
4.510000	-6.680470e+00
4.520000	-6.688690e+00
4.530000	-6.696890e+00
4.540000	-6.705080e+00
4.550000	-6.713260e+00
4.560000	-6.721430e+00
4.570000	-6.729580e+00
4.580000	-6.737710e+00
4.590000	-6.745820e+00
4.600000	-6.753900e+00
4.610000	-6.761950e+00
4.620000	-6.769980e+00
4.630000	-6.777990e+00
4.640000	-6.785980e+00
4.650000	-6.793940e+00
4.660000	-6.801890e+00
4.670000	-6.809810e+00
4.680000	-6.817700e+00
4.690000	-6.825560e+00
4.700000	-6.833400e+00
4.710000	-6.841210e+00
4.720000	-6.849000e+00
4.730000	-6.856750e+00
4.740000	-6.864470e+00
4.750000	-6.872160e+00
4.760000	-6.879840e+00
4.770000	-6.887470e+00
4.780000	-6.895070e+00
4.790000	-6.902620e+00
4.800000	-6.910140e+00
4.810000	-6.917600e+00
4.820000	-6.925030e+00
4.830000	-6.932420e+00
4.840000	-6.939780e+00
4.850000	-6.947090e+00
4.860000	-6.954370e+00
4.870000	-6.961610e+00
4.880000	-6.968800e+00
4.890000	-6.975970e+00
4.900000	-6.983090e+00
4.910000	-6.990180e+00
4.920000	-6.997220e+00
4.930000	-7.004230e+00
4.940000	-7.011200e+00
4.950000	-7.018130e+00
4.960000	-7.025030e+00
4.970000	-7.031880e+00
4.980000	-7.038690e+00
4.990000	-7.045460e+00
5.000000	-7.052190e+00
5.010000	-7.058880e+00
5.020000	-7.065530e+00
5.030000	-7.072130e+00
5.040000	-7.078690e+00
5.050000	-7.085210e+00
5.060000	-7.091690e+00
5.070000	-7.098120e+00
5.080000	-7.104520e+00
5.090000	-7.110880e+00
5.100000	-7.117190e+00
5.110000	-7.123470e+00
5.120000	-7.129710e+00
5.130000	-7.135910e+00
5.140000	-7.142060e+00
5.150000	-7.148180e+00
5.160000	-7.154240e+00
5.170000	-7.160270e+00
5.180000	-7.166260e+00
5.190000	-7.172210e+00
5.200000	-7.178120e+00
5.210000	-7.183990e+00
5.220000	-7.189820e+00
5.230000	-7.195610e+00
5.240000	-7.201360e+00
5.250000	-7.207060e+00
5.260000	-7.212690e+00
5.270000	-7.218300e+00
5.280000	-7.223870e+00
5.290000	-7.229410e+00
5.300000	-7.234910e+00
5.310000	-7.240400e+00
5.320000	-7.245850e+00
5.330000	-7.251260e+00
5.340000	-7.256630e+00
5.350000	-7.261960e+00
5.360000	-7.267240e+00
5.370000	-7.272480e+00
5.380000	-7.277680e+00
5.390000	-7.282850e+00
5.400000	-7.287980e+00
5.410000	-7.293070e+00
5.420000	-7.298120e+00
5.430000	-7.303140e+00
5.440000	-7.308120e+00
5.450000	-7.313070e+00
5.460000	-7.317990e+00
5.470000	-7.322860e+00
5.480000	-7.327710e+00
5.490000	-7.332510e+00
5.500000	-7.337290e+00
5.510000	-7.342020e+00
5.520000	-7.346720e+00
5.530000	-7.351390e+00
5.540000	-7.356020e+00
5.550000	-7.360620e+00
5.560000	-7.365180e+00
5.570000	-7.369710e+00
5.580000	-7.374210e+00
5.590000	-7.378670e+00
5.600000	-7.383110e+00
5.610000	-7.387520e+00
5.620000	-7.391890e+00
5.630000	-7.396240e+00
5.640000	-7.400550e+00
5.650000	-7.404830e+00
5.660000	-7.409070e+00
5.670000	-7.413290e+00
5.680000	-7.417470e+00
5.690000	-7.421630e+00
5.700000	-7.425750e+00
5.710000	-7.429850e+00
5.720000	-7.433920e+00
5.730000	-7.437960e+00
5.740000	-7.441970e+00
5.750000	-7.445950e+00
5.760000	-7.449890e+00
5.770000	-7.453810e+00
5.780000	-7.457700e+00
5.790000	-7.461560e+00
5.800000	-7.465400e+00
5.810000	-7.469210e+00
5.820000	-7.473000e+00
5.830000	-7.476760e+00
5.840000	-7.480490e+00
5.850000	-7.484190e+00
5.860000	-7.487870e+00
5.870000	-7.491520e+00
5.880000	-7.495140e+00
5.890000	-7.498740e+00
5.900000	-7.502320e+00
5.910000	-7.505860e+00
5.920000	-7.509390e+00
5.930000	-7.512890e+00
5.940000	-7.516360e+00
5.950000	-7.519810e+00
5.960000	-7.523240e+00
5.970000	-7.526640e+00
5.980000	-7.530020e+00
5.990000	-7.533380e+00
6.000000	-7.536710e+00
6.010000	-7.540020e+00
6.020000	-7.543300e+00
6.030000	-7.546560e+00
6.040000	-7.549800e+00
6.050000	-7.553020e+00
6.060000	-7.556220e+00
6.070000	-7.559390e+00
6.080000	-7.562550e+00
6.090000	-7.565680e+00
6.100000	-7.568790e+00
6.110000	-7.571870e+00
6.120000	-7.574930e+00
6.130000	-7.577970e+00
6.140000	-7.580990e+00
6.150000	-7.584000e+00
6.160000	-7.587130e+00
6.170000	-7.590160e+00
6.180000	-7.593110e+00
6.190000	-7.595970e+00
6.200000	-7.598740e+00
6.210000	-7.600990e+00
6.220000	-7.603360e+00
6.230000	-7.605860e+00
6.240000	-7.608480e+00
6.250000	-7.611240e+00
6.260000	-7.614550e+00
6.270000	-7.617780e+00
6.280000	-7.620910e+00
6.290000	-7.623950e+00
6.300000	-7.626910e+00
6.310000	-7.629620e+00
6.320000	-7.632320e+00
6.330000	-7.635000e+00
6.340000	-7.637670e+00
6.350000	-7.640310e+00
6.360000	-7.642940e+00
6.370000	-7.645550e+00
6.380000	-7.648150e+00
6.390000	-7.650720e+00
6.400000	-7.653290e+00
6.410000	-7.655830e+00
6.420000	-7.658350e+00
6.430000	-7.660870e+00
6.440000	-7.663360e+00
6.450000	-7.665840e+00
6.460000	-7.668310e+00
6.470000	-7.670750e+00
6.480000	-7.673180e+00
6.490000	-7.675590e+00
6.500000	-7.677990e+00
6.510000	-7.680320e+00
6.520000	-7.682660e+00
6.530000	-7.685000e+00
6.540000	-7.687330e+00
6.550000	-7.689660e+00
6.560000	-7.692030e+00
6.570000	-7.694370e+00
6.580000	-7.696700e+00
6.590000	-7.699010e+00
6.600000	-7.701290e+00
6.610000	-7.703540e+00
6.620000	-7.705780e+00
6.630000	-7.708000e+00
6.640000	-7.710220e+00
6.650000	-7.712420e+00
6.660000	-7.714610e+00
6.670000	-7.716780e+00
6.680000	-7.718950e+00
6.690000	-7.721100e+00
6.700000	-7.723240e+00
6.710000	-7.725480e+00
6.720000	-7.727640e+00
6.730000	-7.729750e+00
6.740000	-7.731780e+00
6.750000	-7.733750e+00
6.760000	-7.735310e+00
6.770000	-7.736970e+00
6.780000	-7.738740e+00
6.790000	-7.740610e+00
6.800000	-7.742570e+00
6.810000	-7.744980e+00
6.820000	-7.747310e+00
6.830000	-7.749580e+00
6.840000	-7.751790e+00
6.850000	-7.753920e+00
6.860000	-7.755880e+00
6.870000	-7.757830e+00
6.880000	-7.759760e+00
6.890000	-7.761690e+00
6.900000	-7.763600e+00
6.910000	-7.765500e+00
6.920000	-7.767400e+00
6.930000	-7.769280e+00
6.940000	-7.771150e+00
6.950000	-7.773010e+00
6.960000	-7.774870e+00
6.970000	-7.776710e+00
6.980000	-7.778550e+00
6.990000	-7.780380e+00
7.000000	-7.782200e+00
7.010000	-7.784010e+00
7.020000	-7.785810e+00
7.030000	-7.787600e+00
7.040000	-7.789380e+00
7.050000	-7.791160e+00
7.060000	-7.792920e+00
7.070000	-7.794680e+00
7.080000	-7.796420e+00
7.090000	-7.798160e+00
7.100000	-7.799890e+00
7.110000	-7.801610e+00
7.120000	-7.803330e+00
7.130000	-7.805030e+00
7.140000	-7.806720e+00
7.150000	-7.808410e+00
7.160000	-7.810130e+00
7.170000	-7.811820e+00
7.180000	-7.813480e+00
7.190000	-7.815110e+00
7.200000	-7.816710e+00
7.210000	-7.818150e+00
7.220000	-7.819620e+00
7.230000	-7.821130e+00
7.240000	-7.822680e+00
7.250000	-7.824260e+00
7.260000	-7.826010e+00
7.270000	-7.827720e+00
7.280000	-7.829410e+00
7.290000	-7.831070e+00
7.300000	-7.832690e+00
7.310000	-7.834250e+00
7.320000	-7.835800e+00
7.330000	-7.837340e+00
7.340000	-7.838870e+00
7.350000	-7.840400e+00
7.360000	-7.841920e+00
7.370000	-7.843430e+00
7.380000	-7.844930e+00
7.390000	-7.846430e+00
7.400000	-7.847920e+00
7.410000	-7.849400e+00
7.420000	-7.850880e+00
7.430000	-7.852350e+00
7.440000	-7.853810e+00
7.450000	-7.855270e+00
7.460000	-7.856710e+00
7.470000	-7.858160e+00
7.480000	-7.859590e+00
7.490000	-7.861020e+00
7.500000	-7.862450e+00
7.510000	-7.863860e+00
7.520000	-7.865270e+00
7.530000	-7.866670e+00
7.540000	-7.868070e+00
7.550000	-7.869460e+00
7.560000	-7.870850e+00
7.570000	-7.872220e+00
7.580000	-7.873600e+00
7.590000	-7.874960e+00
7.600000	-7.876320e+00
7.610000	-7.877680e+00
7.620000	-7.879020e+00
7.630000	-7.880360e+00
7.640000	-7.881700e+00
7.650000	-7.883030e+00
7.660000	-7.884350e+00
7.670000	-7.885670e+00
7.680000	-7.886980e+00
7.690000	-7.888290e+00
7.700000	-7.889590e+00
7.710000	-7.890890e+00
7.720000	-7.892180e+00
7.730000	-7.893460e+00
7.740000	-7.894740e+00
7.750000	-7.896020e+00
7.760000	-7.897290e+00
7.770000	-7.898550e+00
7.780000	-7.899810e+00
7.790000	-7.901060e+00
7.800000	-7.902310e+00
7.810000	-7.903540e+00
7.820000	-7.904770e+00
7.830000	-7.906000e+00
7.840000	-7.907220e+00
7.850000	-7.908440e+00
7.860000	-7.909730e+00
7.870000	-7.910980e+00
7.880000	-7.912180e+00
7.890000	-7.913350e+00
7.900000	-7.914490e+00
7.910000	-7.915380e+00
7.920000	-7.916340e+00
7.930000	-7.917350e+00
7.940000	-7.918430e+00
7.950000	-7.919570e+00
7.960000	-7.920970e+00
7.970000	-7.922330e+00
7.980000	-7.923660e+00
7.990000	-7.924940e+00
8.000000	-7.926190e+00
