# E(GeV)	Re_Tmatrix(GeV^-2)
0.000000	-7.049930e+00
0.010000	-7.054750e+00
0.020000	-7.059560e+00
0.030000	-7.064370e+00
0.040000	-7.069180e+00
0.050000	-7.073990e+00
0.060000	-7.078960e+00
0.070000	-7.083970e+00
0.080000	-7.089040e+00
0.090000	-7.094160e+00
0.100000	-7.099340e+00
0.110000	-7.104540e+00
0.120000	-7.109810e+00
0.130000	-7.115140e+00
0.140000	-7.120540e+00
0.150000	-7.126000e+00
0.160000	-7.131540e+00
0.170000	-7.137130e+00
0.180000	-7.142790e+00
0.190000	-7.148510e+00
0.200000	-7.154290e+00
0.210000	-7.160120e+00
0.220000	-7.166020e+00
0.230000	-7.172000e+00
0.240000	-7.178050e+00
0.250000	-7.184160e+00
0.260000	-7.190340e+00
0.270000	-7.196600e+00
0.280000	-7.202930e+00
0.290000	-7.209340e+00
0.300000	-7.215840e+00
0.310000	-7.222390e+00
0.320000	-7.229030e+00
0.330000	-7.235770e+00
0.340000	-7.242580e+00
0.350000	-7.249490e+00
0.360000	-7.256470e+00
0.370000	-7.263540e+00
0.380000	-7.270710e+00
0.390000	-7.277980e+00
0.400000	-7.285340e+00
0.410000	-7.292780e+00
0.420000	-7.300330e+00
0.430000	-7.307980e+00
0.440000	-7.315740e+00
0.450000	-7.323620e+00
0.460000	-7.331570e+00
0.470000	-7.339640e+00
0.480000	-7.347840e+00
0.490000	-7.356160e+00
0.500000	-7.364590e+00
0.510000	-7.373120e+00
0.520000	-7.381790e+00
0.530000	-7.390590e+00
0.540000	-7.399530e+00
0.550000	-7.408610e+00
0.560000	-7.417780e+00
0.570000	-7.427110e+00
0.580000	-7.436590e+00
0.590000	-7.446230e+00
0.600000	-7.456020e+00
0.610000	-7.465920e+00
0.620000	-7.476000e+00
0.630000	-7.486260e+00
0.640000	-7.496690e+00
0.650000	-7.507300e+00
0.660000	-7.518060e+00
0.670000	-7.529000e+00
0.680000	-7.540150e+00
0.690000	-7.551490e+00
0.700000	-7.563030e+00
0.710000	-7.574690e+00
0.720000	-7.586590e+00
0.730000	-7.598720e+00
0.740000	-7.611090e+00
0.750000	-7.623690e+00
0.760000	-7.636450e+00
0.770000	-7.649490e+00
0.780000	-7.662790e+00
0.790000	-7.676370e+00
0.800000	-7.690210e+00
0.810000	-7.704220e+00
0.820000	-7.718550e+00
0.830000	-7.733190e+00
0.840000	-7.748160e+00
0.850000	-7.763440e+00
0.860000	-7.778930e+00
0.870000	-7.794790e+00
0.880000	-7.811020e+00
0.890000	-7.827620e+00
0.900000	-7.844600e+00
0.910000	-7.861790e+00
0.920000	-7.879430e+00
0.930000	-7.897520e+00
0.940000	-7.916060e+00
0.950000	-7.935040e+00
0.960000	-7.954330e+00
0.970000	-7.974140e+00
0.980000	-7.994460e+00
0.990000	-8.015290e+00
1.000000	-8.036630e+00
1.010000	-8.058270e+00
1.020000	-8.080520e+00
1.030000	-8.103390e+00
1.040000	-8.126870e+00
1.050000	-8.150970e+00
1.060000	-8.175350e+00
1.070000	-8.200520e+00
1.080000	-8.226460e+00
1.090000	-8.253180e+00
1.100000	-8.280690e+00
1.110000	-8.308800e+00
1.120000	-8.337780e+00
1.130000	-8.367630e+00
1.140000	-8.398340e+00
1.150000	-8.429930e+00
1.160000	-8.462050e+00
1.170000	-8.495200e+00
1.180000	-8.529390e+00
1.190000	-8.564610e+00
1.200000	-8.600870e+00
1.210000	-8.637940e+00
1.220000	-8.676150e+00
1.230000	-8.715520e+00
1.240000	-8.756030e+00
1.250000	-8.797700e+00
1.260000	-8.840380e+00
1.270000	-8.884270e+00
1.280000	-8.929390e+00
1.290000	-8.975720e+00
1.300000	-9.023280e+00
1.310000	-9.072310e+00
1.320000	-9.122440e+00
1.330000	-9.173650e+00
1.340000	-9.225970e+00
1.350000	-9.279370e+00
1.360000	-9.334720e+00
1.370000	-9.390740e+00
1.380000	-9.447420e+00
1.390000	-9.504780e+00
1.400000	-9.562810e+00
1.410000	-9.623250e+00
1.420000	-9.683490e+00
1.430000	-9.743530e+00
1.440000	-9.803350e+00
1.450000	-9.862970e+00
1.460000	-9.925340e+00
1.470000	-9.986020e+00
1.480000	-1.004500e+01
1.490000	-1.010230e+01
1.500000	-1.015790e+01
1.510000	-1.021580e+01
1.520000	-1.027000e+01
1.530000	-1.032060e+01
1.540000	-1.036740e+01
1.550000	-1.041060e+01
1.560000	-1.045430e+01
1.570000	-1.049220e+01
1.580000	-1.052440e+01
1.590000	-1.055070e+01
1.600000	-1.057130e+01
1.610000	-1.058930e+01
1.620000	-1.059990e+01
1.630000	-1.060320e+01
1.640000	-1.059910e+01
1.650000	-1.058770e+01
1.660000	-1.056970e+01
1.670000	-1.054400e+01
1.680000	-1.051060e+01
1.690000	-1.046930e+01
1.700000	-1.042040e+01
1.710000	-1.036160e+01
1.720000	-1.029610e+01
1.730000	-1.022380e+01
1.740000	-1.014490e+01
1.750000	-1.005920e+01
1.760000	-9.962560e+00
1.770000	-9.861310e+00
1.780000	-9.755420e+00
1.790000	-9.644880e+00
1.800000	-9.529700e+00
1.810000	-9.404790e+00
1.820000	-9.277780e+00
1.830000	-9.148670e+00
1.840000	-9.017470e+00
1.850000	-8.884170e+00
1.860000	-8.744200e+00
1.870000	-8.604430e+00
1.880000	-8.464840e+00
1.890000	-8.325440e+00
1.900000	-8.186230e+00
1.910000	-8.043890e+00
1.920000	-7.903390e+00
1.930000	-7.764730e+00
1.940000	-7.627920e+00
1.950000	-7.492950e+00
1.960000	-7.357850e+00
1.970000	-7.225570e+00
1.980000	-7.096130e+00
1.990000	-6.969510e+00
2.000000	-6.845730e+00
2.010000	-6.723950e+00
2.020000	-6.605420e+00
2.030000	-6.490120e+00
2.040000	-6.378060e+00
2.050000	-6.269240e+00
2.060000	-6.163610e+00
2.070000	-6.061250e+00
2.080000	-5.962140e+00
2.090000	-5.866290e+00
2.100000	-5.773700e+00
2.110000	-5.684800e+00
2.120000	-5.598940e+00
2.130000	-5.516120e+00
2.140000	-5.436350e+00
2.150000	-5.359620e+00
2.160000	-5.286570e+00
2.170000	-5.216250e+00
2.180000	-5.148660e+00
2.190000	-5.083800e+00
2.200000	-5.021670e+00
2.210000	-4.962990e+00
2.220000	-4.906680e+00
2.230000	-4.852740e+00
2.240000	-4.801160e+00
2.250000	-4.751950e+00
2.260000	-4.705800e+00
2.270000	-4.661670e+00
2.280000	-4.619560e+00
2.290000	-4.579460e+00
2.300000	-4.541380e+00
2.310000	-4.505970e+00
2.320000	-4.472250e+00
2.330000	-4.440220e+00
2.340000	-4.409880e+00
2.350000	-4.381230e+00
2.360000	-4.354890e+00
2.370000	-4.329930e+00
2.380000	-4.306370e+00
2.390000	-4.284190e+00
2.400000	-4.263400e+00
2.410000	-4.244490e+00
2.420000	-4.226720e+00
2.430000	-4.210100e+00
2.440000	-4.194630e+00
2.450000	-4.180300e+00
2.460000	-4.167570e+00
2.470000	-4.155760e+00
2.480000	-4.144870e+00
2.490000	-4.134910e+00
2.500000	-4.125860e+00
2.510000	-4.118110e+00
2.520000	-4.111100e+00
2.530000	-4.104820e+00
2.540000	-4.099270e+00
2.550000	-4.094450e+00
2.560000	-4.090690e+00
2.570000	-4.087500e+00
2.580000	-4.084880e+00
2.590000	-4.082830e+00
2.600000	-4.081350e+00
2.610000	-4.080730e+00
2.620000	-4.080540e+00
2.630000	-4.080780e+00
2.640000	-4.081450e+00
2.650000	-4.082560e+00
2.660000	-4.084320e+00
2.670000	-4.086400e+00
2.680000	-4.088810e+00
2.690000	-4.091530e+00
2.700000	-4.094570e+00
2.710000	-4.098100e+00
2.720000	-4.101870e+00
2.730000	-4.105860e+00
2.740000	-4.110080e+00
2.750000	-4.114530e+00
2.760000	-4.119410e+00
2.770000	-4.124420e+00
2.780000	-4.129560e+00
2.790000	-4.134820e+00
2.800000	-4.140210e+00
2.810000	-4.145820e+00
2.820000	-4.151510e+00
2.830000	-4.157280e+00
2.840000	-4.163130e+00
2.850000	-4.169060e+00
2.860000	-4.175200e+00
2.870000	-4.181360e+00
2.880000	-4.187530e+00
2.890000	-4.193720e+00
2.900000	-4.199930e+00
2.910000	-4.206240e+00
2.920000	-4.212520e+00
2.930000	-4.218790e+00
2.940000	-4.225030e+00
2.950000	-4.231250e+00
2.960000	-4.237510e+00
2.970000	-4.243720e+00
2.980000	-4.249870e+00
2.990000	-4.255970e+00
3.000000	-4.262020e+00
3.010000	-4.268060e+00
3.020000	-4.274020e+00
3.030000	-4.279910e+00
3.040000	-4.285720e+00
3.050000	-4.291460e+00
3.060000	-4.297150e+00
3.070000	-4.302750e+00
3.080000	-4.308260e+00
3.090000	-4.313680e+00
3.100000	-4.319020e+00
3.110000	-4.324280e+00
3.120000	-4.329440e+00
3.130000	-4.334520e+00
3.140000	-4.339500e+00
3.150000	-4.344380e+00
3.160000	-4.349180e+00
3.170000	-4.353880e+00
3.180000	-4.358480e+00
3.190000	-4.362990e+00
3.200000	-4.367410e+00
3.210000	-4.371720e+00
3.220000	-4.375940e+00
3.230000	-4.380080e+00
3.240000	-4.384130e+00
3.250000	-4.388090e+00
3.260000	-4.391950e+00
3.270000	-4.395720e+00
3.280000	-4.399420e+00
3.290000	-4.403040e+00
3.300000	-4.406580e+00
3.310000	-4.410010e+00
3.320000	-4.413380e+00
3.330000	-4.416670e+00
3.340000	-4.419900e+00
3.350000	-4.423060e+00
3.360000	-4.426130e+00
3.370000	-4.429140e+00
3.380000	-4.432090e+00
3.390000	-4.434980e+00
3.400000	-4.437820e+00
3.410000	-4.440570e+00
3.420000	-4.443280e+00
3.430000	-4.445940e+00
3.440000	-4.448560e+00
3.450000	-4.451130e+00
3.460000	-4.453620e+00
3.470000	-4.456090e+00
3.480000	-4.458520e+00
3.490000	-4.460930e+00
3.500000	-4.463300e+00
3.510000	-4.465630e+00
3.520000	-4.467930e+00
3.530000	-4.470220e+00
3.540000	-4.472480e+00
3.550000	-4.474720e+00
3.560000	-4.476920e+00
3.570000	-4.479100e+00
3.580000	-4.481280e+00
3.590000	-4.483450e+00
3.600000	-4.485620e+00
3.610000	-4.487760e+00
3.620000	-4.489890e+00
3.630000	-4.492030e+00
3.640000	-4.494170e+00
3.650000	-4.496310e+00
3.660000	-4.498440e+00
3.670000	-4.500570e+00
3.680000	-4.502710e+00
3.690000	-4.504860e+00
3.700000	-4.507020e+00
3.710000	-4.509170e+00
3.720000	-4.511340e+00
3.730000	-4.513520e+00
3.740000	-4.515720e+00
3.750000	-4.517930e+00
3.760000	-4.520150e+00
3.770000	-4.522390e+00
3.780000	-4.524650e+00
3.790000	-4.526920e+00
3.800000	-4.529220e+00
3.810000	-4.531520e+00
3.820000	-4.533850e+00
3.830000	-4.536200e+00
3.840000	-4.538580e+00
3.850000	-4.540980e+00
3.860000	-4.543400e+00
3.870000	-4.545840e+00
3.880000	-4.548320e+00
3.890000	-4.550820e+00
3.900000	-4.553350e+00
3.910000	-4.555900e+00
3.920000	-4.558480e+00
3.930000	-4.561090e+00
3.940000	-4.563730e+00
3.950000	-4.566400e+00
3.960000	-4.569090e+00
3.970000	-4.571810e+00
3.980000	-4.574560e+00
3.990000	-4.577340e+00
4.000000	-4.580150e+00
4.010000	-4.583000e+00
4.020000	-4.585870e+00
4.030000	-4.588770e+00
4.040000	-4.591710e+00
4.050000	-4.594670e+00
4.060000	-4.597660e+00
4.070000	-4.600680e+00
4.080000	-4.603740e+00
4.090000	-4.606820e+00
4.100000	-4.609940e+00
4.110000	-4.613080e+00
4.120000	-4.616260e+00
4.130000	-4.619470e+00
4.140000	-4.622700e+00
4.150000	-4.625960e+00
4.160000	-4.629260e+00
4.170000	-4.632580e+00
4.180000	-4.635930e+00
4.190000	-4.639300e+00
4.200000	-4.642710e+00
4.210000	-4.646170e+00
4.220000	-4.649650e+00
4.230000	-4.653140e+00
4.240000	-4.656640e+00
4.250000	-4.660160e+00
4.260000	-4.663630e+00
4.270000	-4.667140e+00
4.280000	-4.670700e+00
4.290000	-4.674310e+00
4.300000	-4.677970e+00
4.310000	-4.681750e+00
4.320000	-4.685530e+00
4.330000	-4.689330e+00
4.340000	-4.693140e+00
4.350000	-4.696960e+00
4.360000	-4.700770e+00
4.370000	-4.704600e+00
4.380000	-4.708450e+00
4.390000	-4.712310e+00
4.400000	-4.716200e+00
4.410000	-4.720120e+00
4.420000	-4.724050e+00
4.430000	-4.727990e+00
4.440000	-4.731960e+00
4.450000	-4.735930e+00
4.460000	-4.739940e+00
4.470000	-4.743950e+00
4.480000	-4.747980e+00
4.490000	-4.752020e+00
4.500000	-4.756080e+00
4.510000	-4.760160e+00
4.520000	-4.764250e+00
4.530000	-4.768350e+00
4.540000	-4.772460e+00
4.550000	-4.776580e+00
4.560000	-4.780720e+00
4.570000	-4.784870e+00
4.580000	-4.789020e+00
4.590000	-4.793190e+00
4.600000	-4.797360e+00
4.610000	-4.801540e+00
4.620000	-4.805730e+00
4.630000	-4.809930e+00
4.640000	-4.814130e+00
4.650000	-4.818340e+00
4.660000	-4.822560e+00
4.670000	-4.826790e+00
4.680000	-4.831010e+00
4.690000	-4.835240e+00
4.700000	-4.839470e+00
4.710000	-4.843710e+00
4.720000	-4.847950e+00
4.730000	-4.852190e+00
4.740000	-4.856430e+00
4.750000	-4.860680e+00
4.760000	-4.864930e+00
4.770000	-4.869170e+00
4.780000	-4.873420e+00
4.790000	-4.877660e+00
4.800000	-4.881900e+00
4.810000	-4.886150e+00
4.820000	-4.890390e+00
4.830000	-4.894620e+00
4.840000	-4.898850e+00
4.850000	-4.903080e+00
4.860000	-4.907300e+00
4.870000	-4.911520e+00
4.880000	-4.915730e+00
4.890000	-4.919940e+00
4.900000	-4.924150e+00
4.910000	-4.928350e+00
4.920000	-4.932550e+00
4.930000	-4.936740e+00
4.940000	-4.940920e+00
4.950000	-4.945090e+00
4.960000	-4.949250e+00
4.970000	-4.953400e+00
4.980000	-4.957550e+00
4.990000	-4.961680e+00
5.000000	-4.965810e+00
5.010000	-4.969950e+00
5.020000	-4.974060e+00
5.030000	-4.978160e+00
5.040000	-4.982240e+00
5.050000	-4.986310e+00
5.060000	-4.990300e+00
5.070000	-4.994310e+00
5.080000	-4.998310e+00
5.090000	-5.002320e+00
5.100000	-5.006330e+00
5.110000	-5.010400e+00
5.120000	-5.014440e+00
5.130000	-5.018460e+00
5.140000	-5.022450e+00
5.150000	-5.026430e+00
5.160000	-5.030350e+00
5.170000	-5.034270e+00
5.180000	-5.038170e+00
5.190000	-5.042060e+00
5.200000	-5.045930e+00
5.210000	-5.049790e+00
5.220000	-5.053630e+00
5.230000	-5.057460e+00
5.240000	-5.061280e+00
5.250000	-5.065080e+00
5.260000	-5.068880e+00
5.270000	-5.072660e+00
5.280000	-5.076420e+00
5.290000	-5.080160e+00
5.300000	-5.083890e+00
5.310000	-5.087600e+00
5.320000	-5.091290e+00
5.330000	-5.094970e+00
5.340000	-5.098630e+00
5.350000	-5.102280e+00
5.360000	-5.105910e+00
5.370000	-5.109530e+00
5.380000	-5.113130e+00
5.390000	-5.116710e+00
5.400000	-5.120270e+00
5.410000	-5.123820e+00
5.420000	-5.127340e+00
5.430000	-5.130850e+00
5.440000	-5.134340e+00
5.450000	-5.137810e+00
5.460000	-5.141270e+00
5.470000	-5.144710e+00
5.480000	-5.148130e+00
5.490000	-5.151530e+00
5.500000	-5.154920e+00
5.510000	-5.158280e+00
5.520000	-5.161640e+00
5.530000	-5.164970e+00
5.540000	-5.168290e+00
5.550000	-5.171590e+00
5.560000	-5.174870e+00
5.570000	-5.178140e+00
5.580000	-5.181390e+00
5.590000	-5.184620e+00
5.600000	-5.187830e+00
5.610000	-5.191020e+00
5.620000	-5.194200e+00
5.630000	-5.197360e+00
5.640000	-5.200500e+00
5.650000	-5.203620e+00
5.660000	-5.206730e+00
5.670000	-5.209810e+00
5.680000	-5.212880e+00
5.690000	-5.215940e+00
5.700000	-5.218980e+00
5.710000	-5.222000e+00
5.720000	-5.225010e+00
5.730000	-5.227990e+00
5.740000	-5.230960e+00
5.750000	-5.233910e+00
5.760000	-5.236860e+00
5.770000	-5.239780e+00
5.780000	-5.242680e+00
5.790000	-5.245560e+00
5.800000	-5.248400e+00
5.810000	-5.251180e+00
5.820000	-5.253960e+00
5.830000	-5.256730e+00
5.840000	-5.259510e+00
5.850000	-5.262280e+00
5.860000	-5.265110e+00
5.870000	-5.267910e+00
5.880000	-5.270680e+00
5.890000	-5.273430e+00
5.900000	-5.276160e+00
5.910000	-5.278840e+00
5.920000	-5.281510e+00
5.930000	-5.284170e+00
5.940000	-5.286800e+00
5.950000	-5.289420e+00
5.960000	-5.292040e+00
5.970000	-5.294630e+00
5.980000	-5.297200e+00
5.990000	-5.299760e+00
6.000000	-5.302290e+00
6.010000	-5.304790e+00
6.020000	-5.307280e+00
6.030000	-5.309770e+00
6.040000	-5.312240e+00
6.050000	-5.314700e+00
6.060000	-5.317180e+00
6.070000	-5.319640e+00
6.080000	-5.322070e+00
6.090000	-5.324500e+00
6.100000	-5.326900e+00
6.110000	-5.329280e+00
6.120000	-5.331650e+00
6.130000	-5.334000e+00
6.140000	-5.336330e+00
6.150000	-5.338660e+00
6.160000	-5.340960e+00
6.170000	-5.343260e+00
6.180000	-5.345540e+00
6.190000	-5.347800e+00
6.200000	-5.350050e+00
6.210000	-5.352290e+00
6.220000	-5.354520e+00
6.230000	-5.356730e+00
6.240000	-5.358930e+00
6.250000	-5.361110e+00
6.260000	-5.363280e+00
6.270000	-5.365440e+00
6.280000	-5.367590e+00
6.290000	-5.369720e+00
6.300000	-5.371840e+00
6.310000	-5.373950e+00
6.320000	-5.376040e+00
6.330000	-5.378130e+00
6.340000	-5.380190e+00
6.350000	-5.382250e+00
6.360000	-5.384290e+00
6.370000	-5.386330e+00
6.380000	-5.388350e+00
6.390000	-5.390350e+00
6.400000	-5.392350e+00
6.410000	-5.394330e+00
6.420000	-5.396300e+00
6.430000	-5.398270e+00
6.440000	-5.400210e+00
6.450000	-5.402150e+00
6.460000	-5.404080e+00
6.470000	-5.405990e+00
6.480000	-5.407890e+00
6.490000	-5.409780e+00
6.500000	-5.411670e+00
6.510000	-5.413540e+00
6.520000	-5.415400e+00
6.530000	-5.417240e+00
6.540000	-5.419080e+00
6.550000	-5.420910e+00
6.560000	-5.422720e+00
6.570000	-5.424520e+00
6.580000	-5.426310e+00
6.590000	-5.428090e+00
6.600000	-5.429870e+00
6.610000	-5.431630e+00
6.620000	-5.433380e+00
6.630000	-5.435130e+00
6.640000	-5.436860e+00
6.650000	-5.438580e+00
6.660000	-5.440300e+00
6.670000	-5.442000e+00
6.680000	-5.443700e+00
6.690000	-5.445380e+00
6.700000	-5.447060e+00
6.710000	-5.448730e+00
6.720000	-5.450390e+00
6.730000	-5.452040e+00
6.740000	-5.453680e+00
6.750000	-5.455310e+00
6.760000	-5.456930e+00
6.770000	-5.458540e+00
6.780000	-5.460140e+00
6.790000	-5.461740e+00
6.800000	-5.463320e+00
6.810000	-5.464890e+00
6.820000	-5.466460e+00
6.830000	-5.468020e+00
6.840000	-5.469560e+00
6.850000	-5.471100e+00
6.860000	-5.472640e+00
6.870000	-5.474160e+00
6.880000	-5.475670e+00
6.890000	-5.477180e+00
6.900000	-5.478680e+00
6.910000	-5.480170e+00
6.920000	-5.481650e+00
6.930000	-5.483120e+00
6.940000	-5.484580e+00
6.950000	-5.486040e+00
6.960000	-5.487490e+00
6.970000	-5.488930e+00
6.980000	-5.490370e+00
6.990000	-5.491790e+00
7.000000	-5.493210e+00
7.010000	-5.494620e+00
7.020000	-5.496020e+00
7.030000	-5.497420e+00
7.040000	-5.498810e+00
7.050000	-5.500190e+00
7.060000	-5.501560e+00
7.070000	-5.502920e+00
7.080000	-5.504280e+00
7.090000	-5.505630e+00
7.100000	-5.506980e+00
7.110000	-5.508320e+00
7.120000	-5.509650e+00
7.130000	-5.510970e+00
7.140000	-5.512290e+00
7.150000	-5.513600e+00
7.160000	-5.514900e+00
7.170000	-5.516200e+00
7.180000	-5.517490e+00
7.190000	-5.518770e+00
7.200000	-5.520050e+00
7.210000	-5.521320e+00
7.220000	-5.522580e+00
7.230000	-5.523830e+00
7.240000	-5.525080e+00
7.250000	-5.526330e+00
7.260000	-5.527560e+00
7.270000	-5.528790e+00
7.280000	-5.530020e+00
7.290000	-5.531240e+00
7.300000	-5.532450e+00
7.310000	-5.533660e+00
7.320000	-5.534860e+00
7.330000	-5.536050e+00
7.340000	-5.537240e+00
7.350000	-5.538430e+00
7.360000	-5.539600e+00
7.370000	-5.540780e+00
7.380000	-5.541940e+00
7.390000	-5.543100e+00
7.400000	-5.544260e+00
7.410000	-5.545400e+00
7.420000	-5.546550e+00
7.430000	-5.547680e+00
7.440000	-5.548810e+00
7.450000	-5.549940e+00
7.460000	-5.551060e+00
7.470000	-5.552180e+00
7.480000	-5.553290e+00
7.490000	-5.554390e+00
7.500000	-5.555490e+00
7.510000	-5.556590e+00
7.520000	-5.557680e+00
7.530000	-5.558760e+00
7.540000	-5.559840e+00
7.550000	-5.560910e+00
7.560000	-5.561980e+00
7.570000	-5.563040e+00
7.580000	-5.564100e+00
7.590000	-5.565160e+00
7.600000	-5.566200e+00
7.610000	-5.567250e+00
7.620000	-5.568290e+00
7.630000	-5.569320e+00
7.640000	-5.570350e+00
7.650000	-5.571380e+00
7.660000	-5.572390e+00
7.670000	-5.573410e+00
7.680000	-5.574420e+00
7.690000	-5.575430e+00
7.700000	-5.576430e+00
7.710000	-5.577430e+00
7.720000	-5.578420e+00
7.730000	-5.579410e+00
7.740000	-5.580400e+00
7.750000	-5.581380e+00
7.760000	-5.582350e+00
7.770000	-5.583320e+00
7.780000	-5.584280e+00
7.790000	-5.585240e+00
7.800000	-5.586190e+00
7.810000	-5.587150e+00
7.820000	-5.588100e+00
7.830000	-5.589040e+00
7.840000	-5.589980e+00
7.850000	-5.590920e+00
7.860000	-5.591850e+00
7.870000	-5.592770e+00
7.880000	-5.593700e+00
7.890000	-5.594620e+00
7.900000	-5.595530e+00
7.910000	-5.596440e+00
7.920000	-5.597350e+00
7.930000	-5.598250e+00
7.940000	-5.599150e+00
7.950000	-5.600050e+00
7.960000	-5.600940e+00
7.970000	-5.601830e+00
7.980000	-5.602710e+00
7.990000	-5.603590e+00
8.000000	-5.604470e+00
