# E(GeV)	Re_Tmatrix(GeV^-2)
0.000000	-3.361380e+00
0.010000	-3.362330e+00
0.020000	-3.363270e+00
0.030000	-3.364220e+00
0.040000	-3.365170e+00
0.050000	-3.366120e+00
0.060000	-3.367100e+00
0.070000	-3.368090e+00
0.080000	-3.369090e+00
0.090000	-3.370110e+00
0.100000	-3.371130e+00
0.110000	-3.372170e+00
0.120000	-3.373220e+00
0.130000	-3.374280e+00
0.140000	-3.375350e+00
0.150000	-3.376430e+00
0.160000	-3.377500e+00
0.170000	-3.378600e+00
0.180000	-3.379710e+00
0.190000	-3.380830e+00
0.200000	-3.381980e+00
0.210000	-3.383150e+00
0.220000	-3.384330e+00
0.230000	-3.385520e+00
0.240000	-3.386730e+00
0.250000	-3.387960e+00
0.260000	-3.389190e+00
0.270000	-3.390450e+00
0.280000	-3.391710e+00
0.290000	-3.393000e+00
0.300000	-3.394300e+00
0.310000	-3.395610e+00
0.320000	-3.396940e+00
0.330000	-3.398290e+00
0.340000	-3.399650e+00
0.350000	-3.401040e+00
0.360000	-3.402440e+00
0.370000	-3.403860e+00
0.380000	-3.405300e+00
0.390000	-3.406760e+00
0.400000	-3.408250e+00
0.410000	-3.409740e+00
0.420000	-3.411260e+00
0.430000	-3.412810e+00
0.440000	-3.414380e+00
0.450000	-3.415970e+00
0.460000	-3.417570e+00
0.470000	-3.419210e+00
0.480000	-3.420870e+00
0.490000	-3.422560e+00
0.500000	-3.424270e+00
0.510000	-3.426000e+00
0.520000	-3.427760e+00
0.530000	-3.429550e+00
0.540000	-3.431370e+00
0.550000	-3.433230e+00
0.560000	-3.435150e+00
0.570000	-3.437080e+00
0.580000	-3.439020e+00
0.590000	-3.440970e+00
0.600000	-3.442930e+00
0.610000	-3.444750e+00
0.620000	-3.446650e+00
0.630000	-3.448640e+00
0.640000	-3.450710e+00
0.650000	-3.452880e+00
0.660000	-3.455250e+00
0.670000	-3.457650e+00
0.680000	-3.460070e+00
0.690000	-3.462510e+00
0.700000	-3.464980e+00
0.710000	-3.467410e+00
0.720000	-3.469890e+00
0.730000	-3.472430e+00
0.740000	-3.475010e+00
0.750000	-3.477650e+00
0.760000	-3.480470e+00
0.770000	-3.483280e+00
0.780000	-3.486070e+00
0.790000	-3.488840e+00
0.800000	-3.491600e+00
0.810000	-3.493850e+00
0.820000	-3.496330e+00
0.830000	-3.499030e+00
0.840000	-3.501960e+00
0.850000	-3.505120e+00
0.860000	-3.508940e+00
0.870000	-3.512770e+00
0.880000	-3.516600e+00
0.890000	-3.520440e+00
0.900000	-3.524280e+00
0.910000	-3.527940e+00
0.920000	-3.531700e+00
0.930000	-3.535550e+00
0.940000	-3.539500e+00
0.950000	-3.543550e+00
0.960000	-3.547670e+00
0.970000	-3.551890e+00
0.980000	-3.556230e+00
0.990000	-3.560670e+00
1.000000	-3.565230e+00
1.010000	-3.569870e+00
1.020000	-3.574630e+00
1.030000	-3.579530e+00
1.040000	-3.584540e+00
1.050000	-3.589690e+00
1.060000	-3.594930e+00
1.070000	-3.600320e+00
1.080000	-3.605840e+00
1.090000	-3.611510e+00
1.100000	-3.617310e+00
1.110000	-3.623250e+00
1.120000	-3.629330e+00
1.130000	-3.635550e+00
1.140000	-3.641930e+00
1.150000	-3.648460e+00
1.160000	-3.655140e+00
1.170000	-3.661970e+00
1.180000	-3.668940e+00
1.190000	-3.676050e+00
1.200000	-3.683300e+00
1.210000	-3.690760e+00
1.220000	-3.698320e+00
1.230000	-3.706010e+00
1.240000	-3.713810e+00
1.250000	-3.721730e+00
1.260000	-3.729880e+00
1.270000	-3.738090e+00
1.280000	-3.746360e+00
1.290000	-3.754690e+00
1.300000	-3.763080e+00
1.310000	-3.771720e+00
1.320000	-3.780320e+00
1.330000	-3.788880e+00
1.340000	-3.797410e+00
1.350000	-3.805890e+00
1.360000	-3.814600e+00
1.370000	-3.823140e+00
1.380000	-3.831510e+00
1.390000	-3.839720e+00
1.400000	-3.847760e+00
1.410000	-3.855960e+00
1.420000	-3.863830e+00
1.430000	-3.871370e+00
1.440000	-3.878590e+00
1.450000	-3.885490e+00
1.460000	-3.892380e+00
1.470000	-3.898790e+00
1.480000	-3.904710e+00
1.490000	-3.910150e+00
1.500000	-3.915110e+00
1.510000	-3.919860e+00
1.520000	-3.923990e+00
1.530000	-3.927500e+00
1.540000	-3.930380e+00
1.550000	-3.932640e+00
1.560000	-3.934460e+00
1.570000	-3.935570e+00
1.580000	-3.935960e+00
1.590000	-3.935650e+00
1.600000	-3.934620e+00
1.610000	-3.932950e+00
1.620000	-3.930540e+00
1.630000	-3.927380e+00
1.640000	-3.923470e+00
1.650000	-3.918820e+00
1.660000	-3.913380e+00
1.670000	-3.907210e+00
1.680000	-3.900320e+00
1.690000	-3.892710e+00
1.700000	-3.884380e+00
1.710000	-3.875160e+00
1.720000	-3.865300e+00
1.730000	-3.854800e+00
1.740000	-3.843660e+00
1.750000	-3.831880e+00
1.760000	-3.819200e+00
1.770000	-3.806020e+00
1.780000	-3.792320e+00
1.790000	-3.778110e+00
1.800000	-3.763380e+00
1.810000	-3.747850e+00
1.820000	-3.731950e+00
1.830000	-3.715690e+00
1.840000	-3.699070e+00
1.850000	-3.682090e+00
1.860000	-3.664430e+00
1.870000	-3.646570e+00
1.880000	-3.628500e+00
1.890000	-3.610240e+00
1.900000	-3.591780e+00
1.910000	-3.572820e+00
1.920000	-3.553800e+00
1.930000	-3.534730e+00
1.940000	-3.515610e+00
1.950000	-3.496430e+00
1.960000	-3.476930e+00
1.970000	-3.457510e+00
1.980000	-3.438170e+00
1.990000	-3.418910e+00
2.000000	-3.399730e+00
2.010000	-3.380430e+00
2.020000	-3.361320e+00
2.030000	-3.342370e+00
2.040000	-3.323600e+00
2.050000	-3.305010e+00
2.060000	-3.286430e+00
2.070000	-3.268100e+00
2.080000	-3.250030e+00
2.090000	-3.232210e+00
2.100000	-3.214640e+00
2.110000	-3.197240e+00
2.120000	-3.180140e+00
2.130000	-3.163330e+00
2.140000	-3.146820e+00
2.150000	-3.130600e+00
2.160000	-3.114620e+00
2.170000	-3.098970e+00
2.180000	-3.083640e+00
2.190000	-3.068640e+00
2.200000	-3.053970e+00
2.210000	-3.039610e+00
2.220000	-3.025580e+00
2.230000	-3.011890e+00
2.240000	-2.998530e+00
2.250000	-2.985500e+00
2.260000	-2.972810e+00
2.270000	-2.960450e+00
2.280000	-2.948420e+00
2.290000	-2.936720e+00
2.300000	-2.925350e+00
2.310000	-2.914340e+00
2.320000	-2.903650e+00
2.330000	-2.893270e+00
2.340000	-2.883210e+00
2.350000	-2.873470e+00
2.360000	-2.864090e+00
2.370000	-2.855000e+00
2.380000	-2.846210e+00
2.390000	-2.837720e+00
2.400000	-2.829520e+00
2.410000	-2.821650e+00
2.420000	-2.814060e+00
2.430000	-2.806750e+00
2.440000	-2.799710e+00
2.450000	-2.792940e+00
2.460000	-2.786490e+00
2.470000	-2.780300e+00
2.480000	-2.774350e+00
2.490000	-2.768650e+00
2.500000	-2.763200e+00
2.510000	-2.758050e+00
2.520000	-2.753120e+00
2.530000	-2.748420e+00
2.540000	-2.743930e+00
2.550000	-2.739670e+00
2.560000	-2.735680e+00
2.570000	-2.731880e+00
2.580000	-2.728280e+00
2.590000	-2.724880e+00
2.600000	-2.721680e+00
2.610000	-2.718720e+00
2.620000	-2.715930e+00
2.630000	-2.713320e+00
2.640000	-2.710870e+00
2.650000	-2.708600e+00
2.660000	-2.706550e+00
2.670000	-2.704640e+00
2.680000	-2.702880e+00
2.690000	-2.701270e+00
2.700000	-2.699810e+00
2.710000	-2.698540e+00
2.720000	-2.697400e+00
2.730000	-2.696380e+00
2.740000	-2.695490e+00
2.750000	-2.694740e+00
2.760000	-2.694140e+00
2.770000	-2.693660e+00
2.780000	-2.693280e+00
2.790000	-2.693010e+00
2.800000	-2.692850e+00
2.810000	-2.692830e+00
2.820000	-2.692900e+00
2.830000	-2.693060e+00
2.840000	-2.693320e+00
2.850000	-2.693660e+00
2.860000	-2.694130e+00
2.870000	-2.694680e+00
2.880000	-2.695300e+00
2.890000	-2.695990e+00
2.900000	-2.696760e+00
2.910000	-2.697620e+00
2.920000	-2.698540e+00
2.930000	-2.699520e+00
2.940000	-2.700570e+00
2.950000	-2.701670e+00
2.960000	-2.702870e+00
2.970000	-2.704110e+00
2.980000	-2.705410e+00
2.990000	-2.706750e+00
3.000000	-2.708140e+00
3.010000	-2.709600e+00
3.020000	-2.711100e+00
3.030000	-2.712640e+00
3.040000	-2.714220e+00
3.050000	-2.715830e+00
3.060000	-2.717500e+00
3.070000	-2.719200e+00
3.080000	-2.720930e+00
3.090000	-2.722690e+00
3.100000	-2.724480e+00
3.110000	-2.726340e+00
3.120000	-2.728220e+00
3.130000	-2.730110e+00
3.140000	-2.732020e+00
3.150000	-2.733940e+00
3.160000	-2.735880e+00
3.170000	-2.737830e+00
3.180000	-2.739800e+00
3.190000	-2.741790e+00
3.200000	-2.743790e+00
3.210000	-2.745830e+00
3.220000	-2.747880e+00
3.230000	-2.749940e+00
3.240000	-2.752010e+00
3.250000	-2.754090e+00
3.260000	-2.756190e+00
3.270000	-2.758290e+00
3.280000	-2.760400e+00
3.290000	-2.762510e+00
3.300000	-2.764630e+00
3.310000	-2.766750e+00
3.320000	-2.768880e+00
3.330000	-2.771010e+00
3.340000	-2.773140e+00
3.350000	-2.775270e+00
3.360000	-2.777410e+00
3.370000	-2.779550e+00
3.380000	-2.781680e+00
3.390000	-2.783810e+00
3.400000	-2.785940e+00
3.410000	-2.788080e+00
3.420000	-2.790210e+00
3.430000	-2.792330e+00
3.440000	-2.794450e+00
3.450000	-2.796570e+00
3.460000	-2.798680e+00
3.470000	-2.800790e+00
3.480000	-2.802890e+00
3.490000	-2.804990e+00
3.500000	-2.807080e+00
3.510000	-2.809160e+00
3.520000	-2.811230e+00
3.530000	-2.813300e+00
3.540000	-2.815360e+00
3.550000	-2.817410e+00
3.560000	-2.819450e+00
3.570000	-2.821490e+00
3.580000	-2.823510e+00
3.590000	-2.825530e+00
3.600000	-2.827530e+00
3.610000	-2.829530e+00
3.620000	-2.831520e+00
3.630000	-2.833490e+00
3.640000	-2.835460e+00
3.650000	-2.837420e+00
3.660000	-2.839360e+00
3.670000	-2.841300e+00
3.680000	-2.843220e+00
3.690000	-2.845130e+00
3.700000	-2.847030e+00
3.710000	-2.848920e+00
3.720000	-2.850800e+00
3.730000	-2.852670e+00
3.740000	-2.854530e+00
3.750000	-2.856370e+00
3.760000	-2.858200e+00
3.770000	-2.860020e+00
3.780000	-2.861830e+00
3.790000	-2.863630e+00
3.800000	-2.865410e+00
3.810000	-2.867180e+00
3.820000	-2.868940e+00
3.830000	-2.870690e+00
3.840000	-2.872420e+00
3.850000	-2.874140e+00
3.860000	-2.875860e+00
3.870000	-2.877560e+00
3.880000	-2.879240e+00
3.890000	-2.880920e+00
3.900000	-2.882580e+00
3.910000	-2.884230e+00
3.920000	-2.885870e+00
3.930000	-2.887500e+00
3.940000	-2.889110e+00
3.950000	-2.890710e+00
3.960000	-2.892300e+00
3.970000	-2.893880e+00
3.980000	-2.895440e+00
3.990000	-2.897000e+00
4.000000	-2.898540e+00
4.010000	-2.900060e+00
4.020000	-2.901580e+00
4.030000	-2.903080e+00
4.040000	-2.904580e+00
4.050000	-2.906060e+00
4.060000	-2.907530e+00
4.070000	-2.908990e+00
4.080000	-2.910440e+00
4.090000	-2.911880e+00
4.100000	-2.913300e+00
4.110000	-2.914710e+00
4.120000	-2.916120e+00
4.130000	-2.917510e+00
4.140000	-2.918890e+00
4.150000	-2.920250e+00
4.160000	-2.921610e+00
4.170000	-2.922950e+00
4.180000	-2.924280e+00
4.190000	-2.925600e+00
4.200000	-2.926920e+00
4.210000	-2.928220e+00
4.220000	-2.929510e+00
4.230000	-2.930790e+00
4.240000	-2.932060e+00
4.250000	-2.933320e+00
4.260000	-2.934560e+00
4.270000	-2.935800e+00
4.280000	-2.937030e+00
4.290000	-2.938240e+00
4.300000	-2.939450e+00
4.310000	-2.940650e+00
4.320000	-2.941830e+00
4.330000	-2.943010e+00
4.340000	-2.944170e+00
4.350000	-2.945330e+00
4.360000	-2.946470e+00
4.370000	-2.947610e+00
4.380000	-2.948740e+00
4.390000	-2.949850e+00
4.400000	-2.950960e+00
4.410000	-2.952060e+00
4.420000	-2.953150e+00
4.430000	-2.954230e+00
4.440000	-2.955300e+00
4.450000	-2.956360e+00
4.460000	-2.957410e+00
4.470000	-2.958460e+00
4.480000	-2.959490e+00
4.490000	-2.960520e+00
4.500000	-2.961540e+00
4.510000	-2.962550e+00
4.520000	-2.963550e+00
4.530000	-2.964540e+00
4.540000	-2.965520e+00
4.550000	-2.966500e+00
4.560000	-2.967470e+00
4.570000	-2.968430e+00
4.580000	-2.969380e+00
4.590000	-2.970320e+00
4.600000	-2.971260e+00
4.610000	-2.972190e+00
4.620000	-2.973110e+00
4.630000	-2.974020e+00
4.640000	-2.974920e+00
4.650000	-2.975820e+00
4.660000	-2.976710e+00
4.670000	-2.977590e+00
4.680000	-2.978470e+00
4.690000	-2.979340e+00
4.700000	-2.980200e+00
4.710000	-2.981050e+00
4.720000	-2.981900e+00
4.730000	-2.982740e+00
4.740000	-2.983570e+00
4.750000	-2.984390e+00
4.760000	-2.985210e+00
4.770000	-2.986020e+00
4.780000	-2.986830e+00
4.790000	-2.987630e+00
4.800000	-2.988420e+00
4.810000	-2.989210e+00
4.820000	-2.989990e+00
4.830000	-2.990760e+00
4.840000	-2.991530e+00
4.850000	-2.992290e+00
4.860000	-2.993040e+00
4.870000	-2.993790e+00
4.880000	-2.994530e+00
4.890000	-2.995270e+00
4.900000	-2.996000e+00
4.910000	-2.996730e+00
4.920000	-2.997450e+00
4.930000	-2.998160e+00
4.940000	-2.998870e+00
4.950000	-2.999570e+00
4.960000	-3.000270e+00
4.970000	-3.000960e+00
4.980000	-3.001640e+00
4.990000	-3.002320e+00
5.000000	-3.003000e+00
5.010000	-3.003670e+00
5.020000	-3.004330e+00
5.030000	-3.004990e+00
5.040000	-3.005650e+00
5.050000	-3.006300e+00
5.060000	-3.006940e+00
5.070000	-3.007580e+00
5.080000	-3.008210e+00
5.090000	-3.008840e+00
5.100000	-3.009470e+00
5.110000	-3.010090e+00
5.120000	-3.010700e+00
5.130000	-3.011310e+00
5.140000	-3.011920e+00
5.150000	-3.012520e+00
5.160000	-3.013120e+00
5.170000	-3.013710e+00
5.180000	-3.014290e+00
5.190000	-3.014880e+00
5.200000	-3.015460e+00
5.210000	-3.016050e+00
5.220000	-3.016630e+00
5.230000	-3.017200e+00
5.240000	-3.017770e+00
5.250000	-3.018330e+00
5.260000	-3.018870e+00
5.270000	-3.019420e+00
5.280000	-3.019950e+00
5.290000	-3.020490e+00
5.300000	-3.021020e+00
5.310000	-3.021560e+00
5.320000	-3.022090e+00
5.330000	-3.022620e+00
5.340000	-3.023140e+00
5.350000	-3.023660e+00
5.360000	-3.024170e+00
5.370000	-3.024690e+00
5.380000	-3.025190e+00
5.390000	-3.025700e+00
5.400000	-3.026200e+00
5.410000	-3.026690e+00
5.420000	-3.027190e+00
5.430000	-3.027670e+00
5.440000	-3.028160e+00
5.450000	-3.028640e+00
5.460000	-3.029130e+00
5.470000	-3.029600e+00
5.480000	-3.030080e+00
5.490000	-3.030550e+00
5.500000	-3.031020e+00
5.510000	-3.031480e+00
5.520000	-3.031940e+00
5.530000	-3.032400e+00
5.540000	-3.032850e+00
5.550000	-3.033300e+00
5.560000	-3.033750e+00
5.570000	-3.034200e+00
5.580000	-3.034640e+00
5.590000	-3.035080e+00
5.600000	-3.035520e+00
5.610000	-3.035950e+00
5.620000	-3.036380e+00
5.630000	-3.036810e+00
5.640000	-3.037240e+00
5.650000	-3.037660e+00
5.660000	-3.038080e+00
5.670000	-3.038500e+00
5.680000	-3.038910e+00
5.690000	-3.039320e+00
5.700000	-3.039730e+00
5.710000	-3.040140e+00
5.720000	-3.040540e+00
5.730000	-3.040940e+00
5.740000	-3.041340e+00
5.750000	-3.041740e+00
5.760000	-3.042130e+00
5.770000	-3.042530e+00
5.780000	-3.042920e+00
5.790000	-3.043300e+00
5.800000	-3.043690e+00
5.810000	-3.044070e+00
5.820000	-3.044450e+00
5.830000	-3.044820e+00
5.840000	-3.045200e+00
5.850000	-3.045570e+00
5.860000	-3.045940e+00
5.870000	-3.046310e+00
5.880000	-3.046680e+00
5.890000	-3.047040e+00
5.900000	-3.047400e+00
5.910000	-3.047760e+00
5.920000	-3.048120e+00
5.930000	-3.048470e+00
5.940000	-3.048830e+00
5.950000	-3.049180e+00
5.960000	-3.049530e+00
5.970000	-3.049870e+00
5.980000	-3.050220e+00
5.990000	-3.050560e+00
6.000000	-3.050900e+00
6.010000	-3.051240e+00
6.020000	-3.051580e+00
6.030000	-3.051910e+00
6.040000	-3.052240e+00
6.050000	-3.052580e+00
6.060000	-3.052900e+00
6.070000	-3.053230e+00
6.080000	-3.053560e+00
6.090000	-3.053880e+00
6.100000	-3.054200e+00
6.110000	-3.054520e+00
6.120000	-3.054840e+00
6.130000	-3.055150e+00
6.140000	-3.055470e+00
6.150000	-3.055780e+00
6.160000	-3.056090e+00
6.170000	-3.056400e+00
6.180000	-3.056710e+00
6.190000	-3.057010e+00
6.200000	-3.057320e+00
6.210000	-3.057620e+00
6.220000	-3.057920e+00
6.230000	-3.058220e+00
6.240000	-3.058510e+00
6.250000	-3.058810e+00
6.260000	-3.059100e+00
6.270000	-3.059390e+00
6.280000	-3.059680e+00
6.290000	-3.059970e+00
6.300000	-3.060260e+00
6.310000	-3.060550e+00
6.320000	-3.060830e+00
6.330000	-3.061110e+00
6.340000	-3.061390e+00
6.350000	-3.061670e+00
6.360000	-3.061950e+00
6.370000	-3.062230e+00
6.380000	-3.062500e+00
6.390000	-3.062780e+00
6.400000	-3.063050e+00
6.410000	-3.063320e+00
6.420000	-3.063590e+00
6.430000	-3.063860e+00
6.440000	-3.064130e+00
6.450000	-3.064390e+00
6.460000	-3.064650e+00
6.470000	-3.064920e+00
6.480000	-3.065180e+00
6.490000	-3.065440e+00
6.500000	-3.065700e+00
6.510000	-3.065950e+00
6.520000	-3.066210e+00
6.530000	-3.066470e+00
6.540000	-3.066720e+00
6.550000	-3.066970e+00
6.560000	-3.067220e+00
6.570000	-3.067470e+00
6.580000	-3.067720e+00
6.590000	-3.067970e+00
6.600000	-3.068210e+00
6.610000	-3.068460e+00
6.620000	-3.068700e+00
6.630000	-3.068950e+00
6.640000	-3.069190e+00
6.650000	-3.069430e+00
6.660000	-3.069670e+00
6.670000	-3.069900e+00
6.680000	-3.070140e+00
6.690000	-3.070380e+00
6.700000	-3.070610e+00
6.710000	-3.070850e+00
6.720000	-3.071080e+00
6.730000	-3.071310e+00
6.740000	-3.071540e+00
6.750000	-3.071770e+00
6.760000	-3.072000e+00
6.770000	-3.072220e+00
6.780000	-3.072450e+00
6.790000	-3.072670e+00
6.800000	-3.072900e+00
6.810000	-3.073120e+00
6.820000	-3.073340e+00
6.830000	-3.073560e+00
6.840000	-3.073780e+00
6.850000	-3.074000e+00
6.860000	-3.074220e+00
6.870000	-3.074440e+00
6.880000	-3.074650e+00
6.890000	-3.074870e+00
6.900000	-3.075080e+00
6.910000	-3.075290e+00
6.920000	-3.075500e+00
6.930000	-3.075710e+00
6.940000	-3.075920e+00
6.950000	-3.076130e+00
6.960000	-3.076340e+00
6.970000	-3.076550e+00
6.980000	-3.076760e+00
6.990000	-3.076960e+00
7.000000	-3.077170e+00
7.010000	-3.077370e+00
7.020000	-3.077570e+00
7.030000	-3.077770e+00
7.040000	-3.077970e+00
7.050000	-3.078170e+00
7.060000	-3.078370e+00
7.070000	-3.078570e+00
7.080000	-3.078770e+00
7.090000	-3.078960e+00
7.100000	-3.079160e+00
7.110000	-3.079360e+00
7.120000	-3.079550e+00
7.130000	-3.079740e+00
7.140000	-3.079940e+00
7.150000	-3.080130e+00
7.160000	-3.080320e+00
7.170000	-3.080510e+00
7.180000	-3.080700e+00
7.190000	-3.080890e+00
7.200000	-3.081080e+00
7.210000	-3.081260e+00
7.220000	-3.081450e+00
7.230000	-3.081630e+00
7.240000	-3.081820e+00
7.250000	-3.082000e+00
7.260000	-3.082190e+00
7.270000	-3.082370e+00
7.280000	-3.082550e+00
7.290000	-3.082730e+00
7.300000	-3.082910e+00
7.310000	-3.083090e+00
7.320000	-3.083270e+00
7.330000	-3.083450e+00
7.340000	-3.083620e+00
7.350000	-3.083800e+00
7.360000	-3.083980e+00
7.370000	-3.084150e+00
7.380000	-3.084330e+00
7.390000	-3.084500e+00
7.400000	-3.084670e+00
7.410000	-3.084840e+00
7.420000	-3.085020e+00
7.430000	-3.085190e+00
7.440000	-3.085360e+00
7.450000	-3.085530e+00
7.460000	-3.085700e+00
7.470000	-3.085860e+00
7.480000	-3.086030e+00
7.490000	-3.086200e+00
7.500000	-3.086360e+00
7.510000	-3.086530e+00
7.520000	-3.086690e+00
7.530000	-3.086860e+00
7.540000	-3.087020e+00
7.550000	-3.087180e+00
7.560000	-3.087350e+00
7.570000	-3.087510e+00
7.580000	-3.087670e+00
7.590000	-3.087830e+00
7.600000	-3.087990e+00
7.610000	-3.088150e+00
7.620000	-3.088300e+00
7.630000	-3.088460e+00
7.640000	-3.088620e+00
7.650000	-3.088780e+00
7.660000	-3.088940e+00
7.670000	-3.089100e+00
7.680000	-3.089260e+00
7.690000	-3.089410e+00
7.700000	-3.089570e+00
7.710000	-3.089720e+00
7.720000	-3.089870e+00
7.730000	-3.090010e+00
7.740000	-3.090160e+00
7.750000	-3.090310e+00
7.760000	-3.090460e+00
7.770000	-3.090610e+00
7.780000	-3.090760e+00
7.790000	-3.090910e+00
7.800000	-3.091050e+00
7.810000	-3.091200e+00
7.820000	-3.091350e+00
7.830000	-3.091490e+00
7.840000	-3.091640e+00
7.850000	-3.091790e+00
7.860000	-3.091930e+00
7.870000	-3.092080e+00
7.880000	-3.092230e+00
7.890000	-3.092370e+00
7.900000	-3.092510e+00
7.910000	-3.092650e+00
7.920000	-3.092790e+00
7.930000	-3.092930e+00
7.940000	-3.093070e+00
7.950000	-3.093210e+00
7.960000	-3.093350e+00
7.970000	-3.093490e+00
7.980000	-3.093630e+00
7.990000	-3.093760e+00
8.000000	-3.093900e+00
