# E(GeV)	Re_Tmatrix(GeV^-2)
0.000000	-3.933970e+00
0.010000	-3.935700e+00
0.020000	-3.937420e+00
0.030000	-3.939140e+00
0.040000	-3.940870e+00
0.050000	-3.942590e+00
0.060000	-3.944360e+00
0.070000	-3.946150e+00
0.080000	-3.947960e+00
0.090000	-3.949790e+00
0.100000	-3.951630e+00
0.110000	-3.953500e+00
0.120000	-3.955380e+00
0.130000	-3.957290e+00
0.140000	-3.959220e+00
0.150000	-3.961170e+00
0.160000	-3.963130e+00
0.170000	-3.965120e+00
0.180000	-3.967130e+00
0.190000	-3.969170e+00
0.200000	-3.971220e+00
0.210000	-3.973300e+00
0.220000	-3.975400e+00
0.230000	-3.977520e+00
0.240000	-3.979670e+00
0.250000	-3.981850e+00
0.260000	-3.984050e+00
0.270000	-3.986270e+00
0.280000	-3.988520e+00
0.290000	-3.990800e+00
0.300000	-3.993100e+00
0.310000	-3.995430e+00
0.320000	-3.997790e+00
0.330000	-4.000170e+00
0.340000	-4.002590e+00
0.350000	-4.005040e+00
0.360000	-4.007510e+00
0.370000	-4.010010e+00
0.380000	-4.012550e+00
0.390000	-4.015120e+00
0.400000	-4.017730e+00
0.410000	-4.020360e+00
0.420000	-4.023020e+00
0.430000	-4.025730e+00
0.440000	-4.028470e+00
0.450000	-4.031250e+00
0.460000	-4.034050e+00
0.470000	-4.036900e+00
0.480000	-4.039790e+00
0.490000	-4.042730e+00
0.500000	-4.045700e+00
0.510000	-4.048700e+00
0.520000	-4.051750e+00
0.530000	-4.054850e+00
0.540000	-4.057990e+00
0.550000	-4.061180e+00
0.560000	-4.064400e+00
0.570000	-4.067680e+00
0.580000	-4.071000e+00
0.590000	-4.074380e+00
0.600000	-4.077810e+00
0.610000	-4.081280e+00
0.620000	-4.084810e+00
0.630000	-4.088400e+00
0.640000	-4.092050e+00
0.650000	-4.095750e+00
0.660000	-4.099500e+00
0.670000	-4.103310e+00
0.680000	-4.107190e+00
0.690000	-4.111140e+00
0.700000	-4.115160e+00
0.710000	-4.119220e+00
0.720000	-4.123360e+00
0.730000	-4.127580e+00
0.740000	-4.131870e+00
0.750000	-4.136240e+00
0.760000	-4.140660e+00
0.770000	-4.145170e+00
0.780000	-4.149770e+00
0.790000	-4.154460e+00
0.800000	-4.159230e+00
0.810000	-4.164060e+00
0.820000	-4.168990e+00
0.830000	-4.174030e+00
0.840000	-4.179160e+00
0.850000	-4.184400e+00
0.860000	-4.189700e+00
0.870000	-4.195130e+00
0.880000	-4.200670e+00
0.890000	-4.206330e+00
0.900000	-4.212100e+00
0.910000	-4.217950e+00
0.920000	-4.223940e+00
0.930000	-4.230060e+00
0.940000	-4.236320e+00
0.950000	-4.242720e+00
0.960000	-4.249200e+00
0.970000	-4.255850e+00
0.980000	-4.262650e+00
0.990000	-4.269610e+00
1.000000	-4.276730e+00
1.010000	-4.283950e+00
1.020000	-4.291350e+00
1.030000	-4.298940e+00
1.040000	-4.306710e+00
1.050000	-4.314660e+00
1.060000	-4.322740e+00
1.070000	-4.331030e+00
1.080000	-4.339540e+00
1.090000	-4.348260e+00
1.100000	-4.357190e+00
1.110000	-4.366270e+00
1.120000	-4.375590e+00
1.130000	-4.385150e+00
1.140000	-4.394960e+00
1.150000	-4.405010e+00
1.160000	-4.415240e+00
1.170000	-4.425740e+00
1.180000	-4.436520e+00
1.190000	-4.447570e+00
1.200000	-4.458900e+00
1.210000	-4.470470e+00
1.220000	-4.482330e+00
1.230000	-4.494490e+00
1.240000	-4.506950e+00
1.250000	-4.519710e+00
1.260000	-4.532750e+00
1.270000	-4.546100e+00
1.280000	-4.559770e+00
1.290000	-4.573740e+00
1.300000	-4.588030e+00
1.310000	-4.602660e+00
1.320000	-4.617590e+00
1.330000	-4.632810e+00
1.340000	-4.648320e+00
1.350000	-4.664120e+00
1.360000	-4.680380e+00
1.370000	-4.696840e+00
1.380000	-4.713510e+00
1.390000	-4.730400e+00
1.400000	-4.747490e+00
1.410000	-4.765060e+00
1.420000	-4.782700e+00
1.430000	-4.800430e+00
1.440000	-4.818230e+00
1.450000	-4.836100e+00
1.460000	-4.854620e+00
1.470000	-4.872930e+00
1.480000	-4.891040e+00
1.490000	-4.908950e+00
1.500000	-4.926650e+00
1.510000	-4.944880e+00
1.520000	-4.962540e+00
1.530000	-4.979640e+00
1.540000	-4.996170e+00
1.550000	-5.012130e+00
1.560000	-5.028420e+00
1.570000	-5.043700e+00
1.580000	-5.057960e+00
1.590000	-5.071200e+00
1.600000	-5.083430e+00
1.610000	-5.095560e+00
1.620000	-5.106210e+00
1.630000	-5.115390e+00
1.640000	-5.123100e+00
1.650000	-5.129330e+00
1.660000	-5.134780e+00
1.670000	-5.138410e+00
1.680000	-5.140230e+00
1.690000	-5.140240e+00
1.700000	-5.138440e+00
1.710000	-5.135100e+00
1.720000	-5.129820e+00
1.730000	-5.122580e+00
1.740000	-5.113400e+00
1.750000	-5.102270e+00
1.760000	-5.088950e+00
1.770000	-5.073800e+00
1.780000	-5.056820e+00
1.790000	-5.038020e+00
1.800000	-5.017400e+00
1.810000	-4.994260e+00
1.820000	-4.969640e+00
1.830000	-4.943550e+00
1.840000	-4.915980e+00
1.850000	-4.886930e+00
1.860000	-4.855450e+00
1.870000	-4.822980e+00
1.880000	-4.789510e+00
1.890000	-4.755040e+00
1.900000	-4.719580e+00
1.910000	-4.682110e+00
1.920000	-4.644150e+00
1.930000	-4.605710e+00
1.940000	-4.566780e+00
1.950000	-4.527370e+00
1.960000	-4.486560e+00
1.970000	-4.445720e+00
1.980000	-4.404860e+00
1.990000	-4.363960e+00
2.000000	-4.323030e+00
2.010000	-4.281370e+00
2.020000	-4.240030e+00
2.030000	-4.199000e+00
2.040000	-4.158300e+00
2.050000	-4.117920e+00
2.060000	-4.077380e+00
2.070000	-4.037390e+00
2.080000	-3.997970e+00
2.090000	-3.959090e+00
2.100000	-3.920770e+00
2.110000	-3.882740e+00
2.120000	-3.845390e+00
2.130000	-3.808730e+00
2.140000	-3.772770e+00
2.150000	-3.737490e+00
2.160000	-3.702790e+00
2.170000	-3.668840e+00
2.180000	-3.635630e+00
2.190000	-3.603170e+00
2.200000	-3.571460e+00
2.210000	-3.540480e+00
2.220000	-3.510250e+00
2.230000	-3.480770e+00
2.240000	-3.452040e+00
2.250000	-3.424060e+00
2.260000	-3.396880e+00
2.270000	-3.370420e+00
2.280000	-3.344670e+00
2.290000	-3.319640e+00
2.300000	-3.295330e+00
2.310000	-3.271860e+00
2.320000	-3.249040e+00
2.330000	-3.226880e+00
2.340000	-3.205370e+00
2.350000	-3.184530e+00
2.360000	-3.164440e+00
2.370000	-3.144960e+00
2.380000	-3.126090e+00
2.390000	-3.107810e+00
2.400000	-3.090140e+00
2.410000	-3.073210e+00
2.420000	-3.056820e+00
2.430000	-3.040950e+00
2.440000	-3.025610e+00
2.450000	-3.010810e+00
2.460000	-2.996640e+00
2.470000	-2.982950e+00
2.480000	-2.969730e+00
2.490000	-2.956980e+00
2.500000	-2.944710e+00
2.510000	-2.933050e+00
2.520000	-2.921800e+00
2.530000	-2.910950e+00
2.540000	-2.900510e+00
2.550000	-2.890470e+00
2.560000	-2.880940e+00
2.570000	-2.871760e+00
2.580000	-2.862950e+00
2.590000	-2.854500e+00
2.600000	-2.846400e+00
2.610000	-2.838790e+00
2.620000	-2.831470e+00
2.630000	-2.824460e+00
2.640000	-2.817750e+00
2.650000	-2.811350e+00
2.660000	-2.805320e+00
2.670000	-2.799560e+00
2.680000	-2.794070e+00
2.690000	-2.788840e+00
2.700000	-2.783870e+00
2.710000	-2.779260e+00
2.720000	-2.774870e+00
2.730000	-2.770710e+00
2.740000	-2.766770e+00
2.750000	-2.763060e+00
2.760000	-2.759640e+00
2.770000	-2.756410e+00
2.780000	-2.753370e+00
2.790000	-2.750530e+00
2.800000	-2.747870e+00
2.810000	-2.745470e+00
2.820000	-2.743230e+00
2.830000	-2.741160e+00
2.840000	-2.739250e+00
2.850000	-2.737510e+00
2.860000	-2.735990e+00
2.870000	-2.734600e+00
2.880000	-2.733360e+00
2.890000	-2.732250e+00
2.900000	-2.731280e+00
2.910000	-2.730490e+00
2.920000	-2.729820e+00
2.930000	-2.729260e+00
2.940000	-2.728830e+00
2.950000	-2.728510e+00
2.960000	-2.728350e+00
2.970000	-2.728280e+00
2.980000	-2.728320e+00
2.990000	-2.728460e+00
3.000000	-2.728690e+00
3.010000	-2.729050e+00
3.020000	-2.729490e+00
3.030000	-2.730020e+00
3.040000	-2.730640e+00
3.050000	-2.731330e+00
3.060000	-2.732140e+00
3.070000	-2.733030e+00
3.080000	-2.733980e+00
3.090000	-2.735000e+00
3.100000	-2.736090e+00
3.110000	-2.737280e+00
3.120000	-2.738520e+00
3.130000	-2.739830e+00
3.140000	-2.741190e+00
3.150000	-2.742610e+00
3.160000	-2.744110e+00
3.170000	-2.745660e+00
3.180000	-2.747260e+00
3.190000	-2.748910e+00
3.200000	-2.750620e+00
3.210000	-2.752380e+00
3.220000	-2.754190e+00
3.230000	-2.756040e+00
3.240000	-2.757930e+00
3.250000	-2.759870e+00
3.260000	-2.761860e+00
3.270000	-2.763890e+00
3.280000	-2.765950e+00
3.290000	-2.768040e+00
3.300000	-2.770180e+00
3.310000	-2.772350e+00
3.320000	-2.774560e+00
3.330000	-2.776800e+00
3.340000	-2.779060e+00
3.350000	-2.781360e+00
3.360000	-2.783690e+00
3.370000	-2.786050e+00
3.380000	-2.788440e+00
3.390000	-2.790840e+00
3.400000	-2.793270e+00
3.410000	-2.795730e+00
3.420000	-2.798210e+00
3.430000	-2.800710e+00
3.440000	-2.803230e+00
3.450000	-2.805780e+00
3.460000	-2.808360e+00
3.470000	-2.810950e+00
3.480000	-2.813560e+00
3.490000	-2.816180e+00
3.500000	-2.818830e+00
3.510000	-2.821490e+00
3.520000	-2.824160e+00
3.530000	-2.826850e+00
3.540000	-2.829550e+00
3.550000	-2.832270e+00
3.560000	-2.835000e+00
3.570000	-2.837740e+00
3.580000	-2.840500e+00
3.590000	-2.843260e+00
3.600000	-2.846030e+00
3.610000	-2.848830e+00
3.620000	-2.851630e+00
3.630000	-2.854430e+00
3.640000	-2.857250e+00
3.650000	-2.860070e+00
3.660000	-2.862900e+00
3.670000	-2.865740e+00
3.680000	-2.868580e+00
3.690000	-2.871430e+00
3.700000	-2.874290e+00
3.710000	-2.877150e+00
3.720000	-2.880020e+00
3.730000	-2.882890e+00
3.740000	-2.885760e+00
3.750000	-2.888640e+00
3.760000	-2.891520e+00
3.770000	-2.894410e+00
3.780000	-2.897300e+00
3.790000	-2.900190e+00
3.800000	-2.903080e+00
3.810000	-2.905970e+00
3.820000	-2.908860e+00
3.830000	-2.911750e+00
3.840000	-2.914640e+00
3.850000	-2.917530e+00
3.860000	-2.920430e+00
3.870000	-2.923320e+00
3.880000	-2.926200e+00
3.890000	-2.929090e+00
3.900000	-2.931970e+00
3.910000	-2.934860e+00
3.920000	-2.937740e+00
3.930000	-2.940620e+00
3.940000	-2.943490e+00
3.950000	-2.946360e+00
3.960000	-2.949230e+00
3.970000	-2.952090e+00
3.980000	-2.954950e+00
3.990000	-2.957800e+00
4.000000	-2.960640e+00
4.010000	-2.963480e+00
4.020000	-2.966310e+00
4.030000	-2.969140e+00
4.040000	-2.971960e+00
4.050000	-2.974780e+00
4.060000	-2.977600e+00
4.070000	-2.980410e+00
4.080000	-2.983210e+00
4.090000	-2.986010e+00
4.100000	-2.988790e+00
4.110000	-2.991560e+00
4.120000	-2.994320e+00
4.130000	-2.997070e+00
4.140000	-2.999820e+00
4.150000	-3.002550e+00
4.160000	-3.005280e+00
4.170000	-3.007990e+00
4.180000	-3.010700e+00
4.190000	-3.013400e+00
4.200000	-3.016090e+00
4.210000	-3.018770e+00
4.220000	-3.021440e+00
4.230000	-3.024110e+00
4.240000	-3.026760e+00
4.250000	-3.029390e+00
4.260000	-3.032020e+00
4.270000	-3.034640e+00
4.280000	-3.037240e+00
4.290000	-3.039840e+00
4.300000	-3.042420e+00
4.310000	-3.044990e+00
4.320000	-3.047540e+00
4.330000	-3.050090e+00
4.340000	-3.052620e+00
4.350000	-3.055140e+00
4.360000	-3.057660e+00
4.370000	-3.060160e+00
4.380000	-3.062650e+00
4.390000	-3.065120e+00
4.400000	-3.067580e+00
4.410000	-3.070020e+00
4.420000	-3.072460e+00
4.430000	-3.074880e+00
4.440000	-3.077280e+00
4.450000	-3.079670e+00
4.460000	-3.082050e+00
4.470000	-3.084420e+00
4.480000	-3.086770e+00
4.490000	-3.089110e+00
4.500000	-3.091440e+00
4.510000	-3.093760e+00
4.520000	-3.096070e+00
4.530000	-3.098360e+00
4.540000	-3.100640e+00
4.550000	-3.102900e+00
4.560000	-3.105150e+00
4.570000	-3.107380e+00
4.580000	-3.109600e+00
4.590000	-3.111800e+00
4.600000	-3.113990e+00
4.610000	-3.116170e+00
4.620000	-3.118340e+00
4.630000	-3.120490e+00
4.640000	-3.122630e+00
4.650000	-3.124760e+00
4.660000	-3.126870e+00
4.670000	-3.128970e+00
4.680000	-3.131050e+00
4.690000	-3.133120e+00
4.700000	-3.135180e+00
4.710000	-3.137220e+00
4.720000	-3.139250e+00
4.730000	-3.141260e+00
4.740000	-3.143260e+00
4.750000	-3.145250e+00
4.760000	-3.147220e+00
4.770000	-3.149180e+00
4.780000	-3.151120e+00
4.790000	-3.153060e+00
4.800000	-3.154980e+00
4.810000	-3.156890e+00
4.820000	-3.158780e+00
4.830000	-3.160670e+00
4.840000	-3.162540e+00
4.850000	-3.164390e+00
4.860000	-3.166240e+00
4.870000	-3.168070e+00
4.880000	-3.169890e+00
4.890000	-3.171690e+00
4.900000	-3.173480e+00
4.910000	-3.175260e+00
4.920000	-3.177020e+00
4.930000	-3.178770e+00
4.940000	-3.180510e+00
4.950000	-3.182240e+00
4.960000	-3.183950e+00
4.970000	-3.185660e+00
4.980000	-3.187350e+00
4.990000	-3.189030e+00
5.000000	-3.190700e+00
5.010000	-3.192350e+00
5.020000	-3.193990e+00
5.030000	-3.195620e+00
5.040000	-3.197240e+00
5.050000	-3.198840e+00
5.060000	-3.200440e+00
5.070000	-3.202020e+00
5.080000	-3.203590e+00
5.090000	-3.205150e+00
5.100000	-3.206700e+00
5.110000	-3.208230e+00
5.120000	-3.209760e+00
5.130000	-3.211270e+00
5.140000	-3.212770e+00
5.150000	-3.214270e+00
5.160000	-3.215750e+00
5.170000	-3.217220e+00
5.180000	-3.218680e+00
5.190000	-3.220120e+00
5.200000	-3.221560e+00
5.210000	-3.222990e+00
5.220000	-3.224400e+00
5.230000	-3.225810e+00
5.240000	-3.227200e+00
5.250000	-3.228590e+00
5.260000	-3.229960e+00
5.270000	-3.231330e+00
5.280000	-3.232680e+00
5.290000	-3.234030e+00
5.300000	-3.235360e+00
5.310000	-3.236690e+00
5.320000	-3.238000e+00
5.330000	-3.239310e+00
5.340000	-3.240600e+00
5.350000	-3.241890e+00
5.360000	-3.243160e+00
5.370000	-3.244430e+00
5.380000	-3.245690e+00
5.390000	-3.246940e+00
5.400000	-3.248180e+00
5.410000	-3.249410e+00
5.420000	-3.250630e+00
5.430000	-3.251840e+00
5.440000	-3.253050e+00
5.450000	-3.254240e+00
5.460000	-3.255430e+00
5.470000	-3.256610e+00
5.480000	-3.257780e+00
5.490000	-3.258940e+00
5.500000	-3.260090e+00
5.510000	-3.261230e+00
5.520000	-3.262370e+00
5.530000	-3.263490e+00
5.540000	-3.264610e+00
5.550000	-3.265730e+00
5.560000	-3.266830e+00
5.570000	-3.267930e+00
5.580000	-3.269010e+00
5.590000	-3.270090e+00
5.600000	-3.271170e+00
5.610000	-3.272230e+00
5.620000	-3.273290e+00
5.630000	-3.274340e+00
5.640000	-3.275380e+00
5.650000	-3.276410e+00
5.660000	-3.277440e+00
5.670000	-3.278460e+00
5.680000	-3.279480e+00
5.690000	-3.280480e+00
5.700000	-3.281480e+00
5.710000	-3.282470e+00
5.720000	-3.283460e+00
5.730000	-3.284440e+00
5.740000	-3.285410e+00
5.750000	-3.286370e+00
5.760000	-3.287330e+00
5.770000	-3.288280e+00
5.780000	-3.289230e+00
5.790000	-3.290170e+00
5.800000	-3.291100e+00
5.810000	-3.292030e+00
5.820000	-3.292940e+00
5.830000	-3.293860e+00
5.840000	-3.294770e+00
5.850000	-3.295670e+00
5.860000	-3.296560e+00
5.870000	-3.297450e+00
5.880000	-3.298330e+00
5.890000	-3.299210e+00
5.900000	-3.300080e+00
5.910000	-3.300950e+00
5.920000	-3.301810e+00
5.930000	-3.302660e+00
5.940000	-3.303510e+00
5.950000	-3.304360e+00
5.960000	-3.305190e+00
5.970000	-3.306030e+00
5.980000	-3.306850e+00
5.990000	-3.307670e+00
6.000000	-3.308490e+00
6.010000	-3.309300e+00
6.020000	-3.310110e+00
6.030000	-3.310910e+00
6.040000	-3.311700e+00
6.050000	-3.312490e+00
6.060000	-3.313280e+00
6.070000	-3.314050e+00
6.080000	-3.314830e+00
6.090000	-3.315600e+00
6.100000	-3.316360e+00
6.110000	-3.317120e+00
6.120000	-3.317880e+00
6.130000	-3.318630e+00
6.140000	-3.319380e+00
6.150000	-3.320120e+00
6.160000	-3.320850e+00
6.170000	-3.321590e+00
6.180000	-3.322310e+00
6.190000	-3.323040e+00
6.200000	-3.323760e+00
6.210000	-3.324470e+00
6.220000	-3.325180e+00
6.230000	-3.325880e+00
6.240000	-3.326580e+00
6.250000	-3.327280e+00
6.260000	-3.327970e+00
6.270000	-3.328660e+00
6.280000	-3.329340e+00
6.290000	-3.330020e+00
6.300000	-3.330700e+00
6.310000	-3.331370e+00
6.320000	-3.332040e+00
6.330000	-3.332700e+00
6.340000	-3.333360e+00
6.350000	-3.334020e+00
6.360000	-3.334670e+00
6.370000	-3.335320e+00
6.380000	-3.335960e+00
6.390000	-3.336600e+00
6.400000	-3.337240e+00
6.410000	-3.337870e+00
6.420000	-3.338500e+00
6.430000	-3.339130e+00
6.440000	-3.339750e+00
6.450000	-3.340370e+00
6.460000	-3.340980e+00
6.470000	-3.341590e+00
6.480000	-3.342200e+00
6.490000	-3.342810e+00
6.500000	-3.343410e+00
6.510000	-3.344010e+00
6.520000	-3.344600e+00
6.530000	-3.345190e+00
6.540000	-3.345780e+00
6.550000	-3.346370e+00
6.560000	-3.346950e+00
6.570000	-3.347530e+00
6.580000	-3.348100e+00
6.590000	-3.348670e+00
6.600000	-3.349240e+00
6.610000	-3.349810e+00
6.620000	-3.350370e+00
6.630000	-3.350930e+00
6.640000	-3.351490e+00
6.650000	-3.352040e+00
6.660000	-3.352590e+00
6.670000	-3.353140e+00
6.680000	-3.353690e+00
6.690000	-3.354230e+00
6.700000	-3.354770e+00
6.710000	-3.355310e+00
6.720000	-3.355840e+00
6.730000	-3.356370e+00
6.740000	-3.356900e+00
6.750000	-3.357420e+00
6.760000	-3.357950e+00
6.770000	-3.358470e+00
6.780000	-3.358980e+00
6.790000	-3.359500e+00
6.800000	-3.360010e+00
6.810000	-3.360520e+00
6.820000	-3.361030e+00
6.830000	-3.361530e+00
6.840000	-3.362030e+00
6.850000	-3.362530e+00
6.860000	-3.363030e+00
6.870000	-3.363520e+00
6.880000	-3.364010e+00
6.890000	-3.364500e+00
6.900000	-3.364990e+00
6.910000	-3.365470e+00
6.920000	-3.365950e+00
6.930000	-3.366430e+00
6.940000	-3.366910e+00
6.950000	-3.367380e+00
6.960000	-3.367860e+00
6.970000	-3.368330e+00
6.980000	-3.368790e+00
6.990000	-3.369260e+00
7.000000	-3.369720e+00
7.010000	-3.370180e+00
7.020000	-3.370640e+00
7.030000	-3.371100e+00
7.040000	-3.371550e+00
7.050000	-3.372000e+00
7.060000	-3.372450e+00
7.070000	-3.372900e+00
7.080000	-3.373350e+00
7.090000	-3.373790e+00
7.100000	-3.374230e+00
7.110000	-3.374670e+00
7.120000	-3.375110e+00
7.130000	-3.375550e+00
7.140000	-3.375980e+00
7.150000	-3.376410e+00
7.160000	-3.376840e+00
7.170000	-3.377270e+00
7.180000	-3.377690e+00
7.190000	-3.378120e+00
7.200000	-3.378540e+00
7.210000	-3.378960e+00
7.220000	-3.379380e+00
7.230000	-3.379790e+00
7.240000	-3.380210e+00
7.250000	-3.380620e+00
7.260000	-3.381030e+00
7.270000	-3.381440e+00
7.280000	-3.381850e+00
7.290000	-3.382250e+00
7.300000	-3.382650e+00
7.310000	-3.383050e+00
7.320000	-3.383450e+00
7.330000	-3.383850e+00
7.340000	-3.384250e+00
7.350000	-3.384640e+00
7.360000	-3.385030e+00
7.370000	-3.385420e+00
7.380000	-3.385810e+00
7.390000	-3.386200e+00
7.400000	-3.386580e+00
7.410000	-3.386970e+00
7.420000	-3.387350e+00
7.430000	-3.387730e+00
7.440000	-3.388110e+00
7.450000	-3.388490e+00
7.460000	-3.388860e+00
7.470000	-3.389240e+00
7.480000	-3.389610e+00
7.490000	-3.389980e+00
7.500000	-3.390350e+00
7.510000	-3.390640e+00
7.520000	-3.390970e+00
7.530000	-3.391340e+00
7.540000	-3.391740e+00
7.550000	-3.392170e+00
7.560000	-3.392860e+00
7.570000	-3.393470e+00
7.580000	-3.394010e+00
7.590000	-3.394480e+00
7.600000	-3.394870e+00
7.610000	-3.394960e+00
7.620000	-3.395100e+00
7.630000	-3.395260e+00
7.640000	-3.395470e+00
7.650000	-3.395700e+00
7.660000	-3.396050e+00
7.670000	-3.396390e+00
7.680000	-3.396740e+00
7.690000	-3.397080e+00
7.700000	-3.397420e+00
7.710000	-3.397750e+00
7.720000	-3.398090e+00
7.730000	-3.398430e+00
7.740000	-3.398760e+00
7.750000	-3.399090e+00
7.760000	-3.399420e+00
7.770000	-3.399750e+00
7.780000	-3.400080e+00
7.790000	-3.400410e+00
7.800000	-3.400740e+00
7.810000	-3.401060e+00
7.820000	-3.401380e+00
7.830000	-3.401710e+00
7.840000	-3.402030e+00
7.850000	-3.402350e+00
7.860000	-3.402660e+00
7.870000	-3.402980e+00
7.880000	-3.403300e+00
7.890000	-3.403610e+00
7.900000	-3.403930e+00
7.910000	-3.404240e+00
7.920000	-3.404550e+00
7.930000	-3.404860e+00
7.940000	-3.405170e+00
7.950000	-3.405470e+00
7.960000	-3.405780e+00
7.970000	-3.406080e+00
7.980000	-3.406390e+00
7.990000	-3.406690e+00
8.000000	-3.406990e+00
