# E(GeV)	Re_Tmatrix(GeV^-2)
0.000000	-4.626650e+00
0.010000	-4.630140e+00
0.020000	-4.633640e+00
0.030000	-4.637140e+00
0.040000	-4.640640e+00
0.050000	-4.644140e+00
0.060000	-4.647750e+00
0.070000	-4.651410e+00
0.080000	-4.655110e+00
0.090000	-4.658860e+00
0.100000	-4.662650e+00
0.110000	-4.666480e+00
0.120000	-4.670360e+00
0.130000	-4.674280e+00
0.140000	-4.678240e+00
0.150000	-4.682240e+00
0.160000	-4.686260e+00
0.170000	-4.690340e+00
0.180000	-4.694460e+00
0.190000	-4.698620e+00
0.200000	-4.702840e+00
0.210000	-4.707020e+00
0.220000	-4.711290e+00
0.230000	-4.715650e+00
0.240000	-4.720100e+00
0.250000	-4.724640e+00
0.260000	-4.729360e+00
0.270000	-4.734140e+00
0.280000	-4.738950e+00
0.290000	-4.743810e+00
0.300000	-4.748710e+00
0.310000	-4.753600e+00
0.320000	-4.758560e+00
0.330000	-4.763600e+00
0.340000	-4.768710e+00
0.350000	-4.773890e+00
0.360000	-4.779130e+00
0.370000	-4.784450e+00
0.380000	-4.789850e+00
0.390000	-4.795330e+00
0.400000	-4.800900e+00
0.410000	-4.806530e+00
0.420000	-4.812250e+00
0.430000	-4.818060e+00
0.440000	-4.823960e+00
0.450000	-4.829940e+00
0.460000	-4.835950e+00
0.470000	-4.842080e+00
0.480000	-4.848330e+00
0.490000	-4.854680e+00
0.500000	-4.861150e+00
0.510000	-4.867730e+00
0.520000	-4.874420e+00
0.530000	-4.881230e+00
0.540000	-4.888150e+00
0.550000	-4.895190e+00
0.560000	-4.902300e+00
0.570000	-4.909550e+00
0.580000	-4.916940e+00
0.590000	-4.924460e+00
0.600000	-4.932120e+00
0.610000	-4.939870e+00
0.620000	-4.947780e+00
0.630000	-4.955850e+00
0.640000	-4.964080e+00
0.650000	-4.972460e+00
0.660000	-4.980950e+00
0.670000	-4.989630e+00
0.680000	-4.998480e+00
0.690000	-5.007520e+00
0.700000	-5.016750e+00
0.710000	-5.026090e+00
0.720000	-5.035650e+00
0.730000	-5.045430e+00
0.740000	-5.055420e+00
0.750000	-5.065630e+00
0.760000	-5.075980e+00
0.770000	-5.086580e+00
0.780000	-5.097440e+00
0.790000	-5.108540e+00
0.800000	-5.119900e+00
0.810000	-5.131420e+00
0.820000	-5.143230e+00
0.830000	-5.155340e+00
0.840000	-5.167760e+00
0.850000	-5.180480e+00
0.860000	-5.193400e+00
0.870000	-5.206670e+00
0.880000	-5.220300e+00
0.890000	-5.234280e+00
0.900000	-5.248620e+00
0.910000	-5.263180e+00
0.920000	-5.278170e+00
0.930000	-5.293570e+00
0.940000	-5.309400e+00
0.950000	-5.325640e+00
0.960000	-5.342160e+00
0.970000	-5.359170e+00
0.980000	-5.376680e+00
0.990000	-5.394680e+00
1.000000	-5.413170e+00
1.010000	-5.432020e+00
1.020000	-5.451430e+00
1.030000	-5.471410e+00
1.040000	-5.491950e+00
1.050000	-5.513050e+00
1.060000	-5.534640e+00
1.070000	-5.556830e+00
1.080000	-5.579630e+00
1.090000	-5.603030e+00
1.100000	-5.627030e+00
1.110000	-5.651600e+00
1.120000	-5.676790e+00
1.130000	-5.702600e+00
1.140000	-5.729030e+00
1.150000	-5.756080e+00
1.160000	-5.784060e+00
1.170000	-5.812510e+00
1.180000	-5.841410e+00
1.190000	-5.870780e+00
1.200000	-5.900610e+00
1.210000	-5.931550e+00
1.220000	-5.962630e+00
1.230000	-5.993840e+00
1.240000	-6.025190e+00
1.250000	-6.056680e+00
1.260000	-6.089500e+00
1.270000	-6.121850e+00
1.280000	-6.153750e+00
1.290000	-6.185180e+00
1.300000	-6.216160e+00
1.310000	-6.248330e+00
1.320000	-6.279210e+00
1.330000	-6.308820e+00
1.340000	-6.337140e+00
1.350000	-6.364180e+00
1.360000	-6.391730e+00
1.370000	-6.417110e+00
1.380000	-6.440300e+00
1.390000	-6.461310e+00
1.400000	-6.480150e+00
1.410000	-6.498350e+00
1.420000	-6.513600e+00
1.430000	-6.525900e+00
1.440000	-6.535250e+00
1.450000	-6.541640e+00
1.460000	-6.545650e+00
1.470000	-6.546430e+00
1.480000	-6.543960e+00
1.490000	-6.538250e+00
1.500000	-6.529310e+00
1.510000	-6.516790e+00
1.520000	-6.501200e+00
1.530000	-6.482530e+00
1.540000	-6.460770e+00
1.550000	-6.435930e+00
1.560000	-6.406870e+00
1.570000	-6.375290e+00
1.580000	-6.341210e+00
1.590000	-6.304620e+00
1.600000	-6.265520e+00
1.610000	-6.222330e+00
1.620000	-6.177420e+00
1.630000	-6.130800e+00
1.640000	-6.082470e+00
1.650000	-6.032430e+00
1.660000	-5.979070e+00
1.670000	-5.924800e+00
1.680000	-5.869620e+00
1.690000	-5.813540e+00
1.700000	-5.756550e+00
1.710000	-5.697250e+00
1.720000	-5.637740e+00
1.730000	-5.578040e+00
1.740000	-5.518130e+00
1.750000	-5.458010e+00
1.760000	-5.396640e+00
1.770000	-5.335600e+00
1.780000	-5.274880e+00
1.790000	-5.214490e+00
1.800000	-5.154430e+00
1.810000	-5.093990e+00
1.820000	-5.034230e+00
1.830000	-4.975150e+00
1.840000	-4.916750e+00
1.850000	-4.859040e+00
1.860000	-4.801590e+00
1.870000	-4.745030e+00
1.880000	-4.689360e+00
1.890000	-4.634590e+00
1.900000	-4.580720e+00
1.910000	-4.527540e+00
1.920000	-4.475350e+00
1.930000	-4.424160e+00
1.940000	-4.373970e+00
1.950000	-4.324780e+00
1.960000	-4.276540e+00
1.970000	-4.229320e+00
1.980000	-4.183120e+00
1.990000	-4.137940e+00
2.000000	-4.093780e+00
2.010000	-4.050680e+00
2.020000	-4.008580e+00
2.030000	-3.967480e+00
2.040000	-3.927370e+00
2.050000	-3.888250e+00
2.060000	-3.850250e+00
2.070000	-3.813190e+00
2.080000	-3.777070e+00
2.090000	-3.741880e+00
2.100000	-3.707630e+00
2.110000	-3.674450e+00
2.120000	-3.642150e+00
2.130000	-3.610710e+00
2.140000	-3.580140e+00
2.150000	-3.550430e+00
2.160000	-3.521770e+00
2.170000	-3.493890e+00
2.180000	-3.466790e+00
2.190000	-3.440480e+00
2.200000	-3.414950e+00
2.210000	-3.390330e+00
2.220000	-3.366430e+00
2.230000	-3.343250e+00
2.240000	-3.320790e+00
2.250000	-3.299050e+00
2.260000	-3.278230e+00
2.270000	-3.258030e+00
2.280000	-3.238440e+00
2.290000	-3.219470e+00
2.300000	-3.201110e+00
2.310000	-3.183440e+00
2.320000	-3.166350e+00
2.330000	-3.149830e+00
2.340000	-3.133880e+00
2.350000	-3.118510e+00
2.360000	-3.103860e+00
2.370000	-3.089710e+00
2.380000	-3.076050e+00
2.390000	-3.062890e+00
2.400000	-3.050230e+00
2.410000	-3.038190e+00
2.420000	-3.026580e+00
2.430000	-3.015410e+00
2.440000	-3.004680e+00
2.450000	-2.994390e+00
2.460000	-2.984650e+00
2.470000	-2.975290e+00
2.480000	-2.966320e+00
2.490000	-2.957740e+00
2.500000	-2.949540e+00
2.510000	-2.941820e+00
2.520000	-2.934440e+00
2.530000	-2.927390e+00
2.540000	-2.920680e+00
2.550000	-2.914300e+00
2.560000	-2.908360e+00
2.570000	-2.902710e+00
2.580000	-2.897340e+00
2.590000	-2.892260e+00
2.600000	-2.887470e+00
2.610000	-2.883050e+00
2.620000	-2.878880e+00
2.630000	-2.874950e+00
2.640000	-2.871280e+00
2.650000	-2.867850e+00
2.660000	-2.864750e+00
2.670000	-2.861860e+00
2.680000	-2.859180e+00
2.690000	-2.856710e+00
2.700000	-2.854450e+00
2.710000	-2.852480e+00
2.720000	-2.850670e+00
2.730000	-2.849040e+00
2.740000	-2.847590e+00
2.750000	-2.846320e+00
2.760000	-2.845270e+00
2.770000	-2.844380e+00
2.780000	-2.843630e+00
2.790000	-2.843020e+00
2.800000	-2.842560e+00
2.810000	-2.842300e+00
2.820000	-2.842160e+00
2.830000	-2.842140e+00
2.840000	-2.842230e+00
2.850000	-2.842440e+00
2.860000	-2.842820e+00
2.870000	-2.843300e+00
2.880000	-2.843860e+00
2.890000	-2.844520e+00
2.900000	-2.845270e+00
2.910000	-2.846160e+00
2.920000	-2.847120e+00
2.930000	-2.848150e+00
2.940000	-2.849250e+00
2.950000	-2.850420e+00
2.960000	-2.851710e+00
2.970000	-2.853040e+00
2.980000	-2.854430e+00
2.990000	-2.855870e+00
3.000000	-2.857360e+00
3.010000	-2.858940e+00
3.020000	-2.860550e+00
3.030000	-2.862200e+00
3.040000	-2.863880e+00
3.050000	-2.865600e+00
3.060000	-2.867390e+00
3.070000	-2.869190e+00
3.080000	-2.871020e+00
3.090000	-2.872870e+00
3.100000	-2.874740e+00
3.110000	-2.876660e+00
3.120000	-2.878590e+00
3.130000	-2.880540e+00
3.140000	-2.882490e+00
3.150000	-2.884460e+00
3.160000	-2.886450e+00
3.170000	-2.888450e+00
3.180000	-2.890450e+00
3.190000	-2.892460e+00
3.200000	-2.894460e+00
3.210000	-2.896480e+00
3.220000	-2.898500e+00
3.230000	-2.900510e+00
3.240000	-2.902520e+00
3.250000	-2.904520e+00
3.260000	-2.906530e+00
3.270000	-2.908520e+00
3.280000	-2.910510e+00
3.290000	-2.912490e+00
3.300000	-2.914460e+00
3.310000	-2.916430e+00
3.320000	-2.918390e+00
3.330000	-2.920330e+00
3.340000	-2.922260e+00
3.350000	-2.924180e+00
3.360000	-2.926090e+00
3.370000	-2.927980e+00
3.380000	-2.929860e+00
3.390000	-2.931720e+00
3.400000	-2.933570e+00
3.410000	-2.935410e+00
3.420000	-2.937230e+00
3.430000	-2.939030e+00
3.440000	-2.940830e+00
3.450000	-2.942600e+00
3.460000	-2.944360e+00
3.470000	-2.946110e+00
3.480000	-2.947840e+00
3.490000	-2.949550e+00
3.500000	-2.951250e+00
3.510000	-2.952940e+00
3.520000	-2.954610e+00
3.530000	-2.956270e+00
3.540000	-2.957920e+00
3.550000	-2.959550e+00
3.560000	-2.961160e+00
3.570000	-2.962760e+00
3.580000	-2.964340e+00
3.590000	-2.965920e+00
3.600000	-2.967480e+00
3.610000	-2.969030e+00
3.620000	-2.970560e+00
3.630000	-2.972090e+00
3.640000	-2.973610e+00
3.650000	-2.975120e+00
3.660000	-2.976610e+00
3.670000	-2.978100e+00
3.680000	-2.979570e+00
3.690000	-2.981050e+00
3.700000	-2.982510e+00
3.710000	-2.983960e+00
3.720000	-2.985400e+00
3.730000	-2.986840e+00
3.740000	-2.988280e+00
3.750000	-2.989710e+00
3.760000	-2.991120e+00
3.770000	-2.992540e+00
3.780000	-2.993950e+00
3.790000	-2.995360e+00
3.800000	-2.996770e+00
3.810000	-2.998180e+00
3.820000	-2.999590e+00
3.830000	-3.001000e+00
3.840000	-3.002400e+00
3.850000	-3.003800e+00
3.860000	-3.005180e+00
3.870000	-3.006570e+00
3.880000	-3.007960e+00
3.890000	-3.009350e+00
3.900000	-3.010740e+00
3.910000	-3.012140e+00
3.920000	-3.013540e+00
3.930000	-3.014940e+00
3.940000	-3.016340e+00
3.950000	-3.017750e+00
3.960000	-3.019150e+00
3.970000	-3.020560e+00
3.980000	-3.021980e+00
3.990000	-3.023400e+00
4.000000	-3.024820e+00
4.010000	-3.026250e+00
4.020000	-3.027680e+00
4.030000	-3.029120e+00
4.040000	-3.030570e+00
4.050000	-3.032020e+00
4.060000	-3.033480e+00
4.070000	-3.034950e+00
4.080000	-3.036420e+00
4.090000	-3.037900e+00
4.100000	-3.039380e+00
4.110000	-3.040870e+00
4.120000	-3.042360e+00
4.130000	-3.043870e+00
4.140000	-3.045380e+00
4.150000	-3.046900e+00
4.160000	-3.048440e+00
4.170000	-3.049980e+00
4.180000	-3.051530e+00
4.190000	-3.053090e+00
4.200000	-3.054650e+00
4.210000	-3.056220e+00
4.220000	-3.057800e+00
4.230000	-3.059390e+00
4.240000	-3.060980e+00
4.250000	-3.062590e+00
4.260000	-3.064210e+00
4.270000	-3.065840e+00
4.280000	-3.067480e+00
4.290000	-3.069130e+00
4.300000	-3.070780e+00
4.310000	-3.072450e+00
4.320000	-3.074130e+00
4.330000	-3.075810e+00
4.340000	-3.077510e+00
4.350000	-3.079210e+00
4.360000	-3.080930e+00
4.370000	-3.082650e+00
4.380000	-3.084380e+00
4.390000	-3.086130e+00
4.400000	-3.087880e+00
4.410000	-3.089650e+00
4.420000	-3.091430e+00
4.430000	-3.093220e+00
4.440000	-3.095010e+00
4.450000	-3.096810e+00
4.460000	-3.098620e+00
4.470000	-3.100440e+00
4.480000	-3.102260e+00
4.490000	-3.104100e+00
4.500000	-3.105940e+00
4.510000	-3.107800e+00
4.520000	-3.109670e+00
4.530000	-3.111540e+00
4.540000	-3.113430e+00
4.550000	-3.115320e+00
4.560000	-3.117220e+00
4.570000	-3.119140e+00
4.580000	-3.121060e+00
4.590000	-3.122980e+00
4.600000	-3.124920e+00
4.610000	-3.126870e+00
4.620000	-3.128820e+00
4.630000	-3.130780e+00
4.640000	-3.132750e+00
4.650000	-3.134720e+00
4.660000	-3.136710e+00
4.670000	-3.138700e+00
4.680000	-3.140700e+00
4.690000	-3.142700e+00
4.700000	-3.144710e+00
4.710000	-3.146730e+00
4.720000	-3.148760e+00
4.730000	-3.150790e+00
4.740000	-3.152830e+00
4.750000	-3.154870e+00
4.760000	-3.156920e+00
4.770000	-3.158980e+00
4.780000	-3.161040e+00
4.790000	-3.163110e+00
4.800000	-3.165180e+00
4.810000	-3.167260e+00
4.820000	-3.169340e+00
4.830000	-3.171430e+00
4.840000	-3.173520e+00
4.850000	-3.175620e+00
4.860000	-3.177720e+00
4.870000	-3.179820e+00
4.880000	-3.181930e+00
4.890000	-3.184050e+00
4.900000	-3.186160e+00
4.910000	-3.188280e+00
4.920000	-3.190400e+00
4.930000	-3.192530e+00
4.940000	-3.194660e+00
4.950000	-3.196790e+00
4.960000	-3.198930e+00
4.970000	-3.201060e+00
4.980000	-3.203200e+00
4.990000	-3.205350e+00
5.000000	-3.207490e+00
5.010000	-3.209630e+00
5.020000	-3.211780e+00
5.030000	-3.213930e+00
5.040000	-3.216080e+00
5.050000	-3.218230e+00
5.060000	-3.220380e+00
5.070000	-3.222530e+00
5.080000	-3.224680e+00
5.090000	-3.226830e+00
5.100000	-3.228980e+00
5.110000	-3.231140e+00
5.120000	-3.233290e+00
5.130000	-3.235440e+00
5.140000	-3.237590e+00
5.150000	-3.239740e+00
5.160000	-3.241890e+00
5.170000	-3.244040e+00
5.180000	-3.246190e+00
5.190000	-3.248340e+00
5.200000	-3.250480e+00
5.210000	-3.252620e+00
5.220000	-3.254770e+00
5.230000	-3.256900e+00
5.240000	-3.259040e+00
5.250000	-3.261180e+00
5.260000	-3.263310e+00
5.270000	-3.265440e+00
5.280000	-3.267570e+00
5.290000	-3.269700e+00
5.300000	-3.271820e+00
5.310000	-3.273940e+00
5.320000	-3.276060e+00
5.330000	-3.278170e+00
5.340000	-3.280280e+00
5.350000	-3.282390e+00
5.360000	-3.284490e+00
5.370000	-3.286590e+00
5.380000	-3.288680e+00
5.390000	-3.290770e+00
5.400000	-3.292860e+00
5.410000	-3.294940e+00
5.420000	-3.297020e+00
5.430000	-3.299090e+00
5.440000	-3.301160e+00
5.450000	-3.303230e+00
5.460000	-3.305290e+00
5.470000	-3.307340e+00
5.480000	-3.309390e+00
5.490000	-3.311440e+00
5.500000	-3.313470e+00
5.510000	-3.315510e+00
5.520000	-3.317530e+00
5.530000	-3.319560e+00
5.540000	-3.321570e+00
5.550000	-3.323590e+00
5.560000	-3.325600e+00
5.570000	-3.327610e+00
5.580000	-3.329600e+00
5.590000	-3.331600e+00
5.600000	-3.333580e+00
5.610000	-3.335560e+00
5.620000	-3.337530e+00
5.630000	-3.339490e+00
5.640000	-3.341450e+00
5.650000	-3.343400e+00
5.660000	-3.345340e+00
5.670000	-3.347280e+00
5.680000	-3.349210e+00
5.690000	-3.351140e+00
5.700000	-3.353050e+00
5.710000	-3.354970e+00
5.720000	-3.356870e+00
5.730000	-3.358770e+00
5.740000	-3.360660e+00
5.750000	-3.362550e+00
5.760000	-3.364460e+00
5.770000	-3.366350e+00
5.780000	-3.368210e+00
5.790000	-3.370050e+00
5.800000	-3.371870e+00
5.810000	-3.373560e+00
5.820000	-3.375280e+00
5.830000	-3.377020e+00
5.840000	-3.378790e+00
5.850000	-3.380590e+00
5.860000	-3.382510e+00
5.870000	-3.384410e+00
5.880000	-3.386290e+00
5.890000	-3.388140e+00
5.900000	-3.389970e+00
5.910000	-3.391740e+00
5.920000	-3.393500e+00
5.930000	-3.395250e+00
5.940000	-3.397000e+00
5.950000	-3.398740e+00
5.960000	-3.400480e+00
5.970000	-3.402200e+00
5.980000	-3.403920e+00
5.990000	-3.405630e+00
6.000000	-3.407330e+00
6.010000	-3.409030e+00
6.020000	-3.410710e+00
6.030000	-3.412390e+00
6.040000	-3.414060e+00
6.050000	-3.415730e+00
6.060000	-3.417390e+00
6.070000	-3.419040e+00
6.080000	-3.420680e+00
6.090000	-3.422310e+00
6.100000	-3.423940e+00
6.110000	-3.425560e+00
6.120000	-3.427170e+00
6.130000	-3.428780e+00
6.140000	-3.430370e+00
6.150000	-3.431960e+00
6.160000	-3.433550e+00
6.170000	-3.435120e+00
6.180000	-3.436690e+00
6.190000	-3.438240e+00
6.200000	-3.439800e+00
6.210000	-3.441340e+00
6.220000	-3.442870e+00
6.230000	-3.444400e+00
6.240000	-3.445920e+00
6.250000	-3.447440e+00
6.260000	-3.448950e+00
6.270000	-3.450450e+00
6.280000	-3.451940e+00
6.290000	-3.453420e+00
6.300000	-3.454900e+00
6.310000	-3.456370e+00
6.320000	-3.457830e+00
6.330000	-3.459290e+00
6.340000	-3.460730e+00
6.350000	-3.462180e+00
6.360000	-3.463610e+00
6.370000	-3.465040e+00
6.380000	-3.466460e+00
6.390000	-3.467870e+00
6.400000	-3.469280e+00
6.410000	-3.470670e+00
6.420000	-3.472060e+00
6.430000	-3.473450e+00
6.440000	-3.474820e+00
6.450000	-3.476200e+00
6.460000	-3.477570e+00
6.470000	-3.478940e+00
6.480000	-3.480300e+00
6.490000	-3.481640e+00
6.500000	-3.482980e+00
6.510000	-3.484300e+00
6.520000	-3.485610e+00
6.530000	-3.486920e+00
6.540000	-3.488230e+00
6.550000	-3.489530e+00
6.560000	-3.490820e+00
6.570000	-3.492110e+00
6.580000	-3.493390e+00
6.590000	-3.494670e+00
6.600000	-3.495940e+00
6.610000	-3.497200e+00
6.620000	-3.498460e+00
6.630000	-3.499710e+00
6.640000	-3.500950e+00
6.650000	-3.502190e+00
6.660000	-3.503420e+00
6.670000	-3.504650e+00
6.680000	-3.505860e+00
6.690000	-3.507080e+00
6.700000	-3.508280e+00
6.710000	-3.509480e+00
6.720000	-3.510680e+00
6.730000	-3.511860e+00
6.740000	-3.513040e+00
6.750000	-3.514220e+00
6.760000	-3.515390e+00
6.770000	-3.516550e+00
6.780000	-3.517710e+00
6.790000	-3.518860e+00
6.800000	-3.520010e+00
6.810000	-3.521150e+00
6.820000	-3.522280e+00
6.830000	-3.523410e+00
6.840000	-3.524530e+00
6.850000	-3.525650e+00
6.860000	-3.526750e+00
6.870000	-3.527860e+00
6.880000	-3.528960e+00
6.890000	-3.530050e+00
6.900000	-3.531140e+00
6.910000	-3.532230e+00
6.920000	-3.533320e+00
6.930000	-3.534390e+00
6.940000	-3.535460e+00
6.950000	-3.536520e+00
6.960000	-3.537570e+00
6.970000	-3.538610e+00
6.980000	-3.539650e+00
6.990000	-3.540690e+00
7.000000	-3.541720e+00
7.010000	-3.542750e+00
7.020000	-3.543770e+00
7.030000	-3.544790e+00
7.040000	-3.545800e+00
7.050000	-3.546810e+00
7.060000	-3.547810e+00
7.070000	-3.548810e+00
7.080000	-3.549800e+00
7.090000	-3.550790e+00
7.100000	-3.551770e+00
7.110000	-3.552750e+00
7.120000	-3.553730e+00
7.130000	-3.554690e+00
7.140000	-3.555660e+00
7.150000	-3.556620e+00
7.160000	-3.557570e+00
7.170000	-3.558510e+00
7.180000	-3.559460e+00
7.190000	-3.560390e+00
7.200000	-3.561330e+00
7.210000	-3.562260e+00
7.220000	-3.563180e+00
7.230000	-3.564100e+00
7.240000	-3.565020e+00
7.250000	-3.565930e+00
7.260000	-3.566840e+00
7.270000	-3.567740e+00
7.280000	-3.568630e+00
7.290000	-3.569530e+00
7.300000	-3.570420e+00
7.310000	-3.571300e+00
7.320000	-3.572180e+00
7.330000	-3.573050e+00
7.340000	-3.573920e+00
7.350000	-3.574790e+00
7.360000	-3.575660e+00
7.370000	-3.576510e+00
7.380000	-3.577370e+00
7.390000	-3.578220e+00
7.400000	-3.579070e+00
7.410000	-3.579910e+00
7.420000	-3.580740e+00
7.430000	-3.581580e+00
7.440000	-3.582410e+00
7.450000	-3.583230e+00
7.460000	-3.584060e+00
7.470000	-3.584870e+00
7.480000	-3.585690e+00
7.490000	-3.586500e+00
7.500000	-3.587300e+00
7.510000	-3.588100e+00
7.520000	-3.588900e+00
7.530000	-3.589690e+00
7.540000	-3.590480e+00
7.550000	-3.591270e+00
7.560000	-3.592050e+00
7.570000	-3.592830e+00
7.580000	-3.593600e+00
7.590000	-3.594370e+00
7.600000	-3.595140e+00
7.610000	-3.595900e+00
7.620000	-3.596660e+00
7.630000	-3.597420e+00
7.640000	-3.598180e+00
7.650000	-3.598930e+00
7.660000	-3.599670e+00
7.670000	-3.600410e+00
7.680000	-3.601150e+00
7.690000	-3.601890e+00
7.700000	-3.602620e+00
7.710000	-3.603350e+00
7.720000	-3.604080e+00
7.730000	-3.604800e+00
7.740000	-3.605520e+00
7.750000	-3.606240e+00
7.760000	-3.606950e+00
7.770000	-3.607660e+00
7.780000	-3.608360e+00
7.790000	-3.609070e+00
7.800000	-3.609770e+00
7.810000	-3.610480e+00
7.820000	-3.611180e+00
7.830000	-3.611880e+00
7.840000	-3.612570e+00
7.850000	-3.613250e+00
7.860000	-3.613920e+00
7.870000	-3.614590e+00
7.880000	-3.615260e+00
7.890000	-3.615930e+00
7.900000	-3.616590e+00
7.910000	-3.617260e+00
7.920000	-3.617920e+00
7.930000	-3.618580e+00
7.940000	-3.619240e+00
7.950000	-3.619890e+00
7.960000	-3.620540e+00
7.970000	-3.621190e+00
7.980000	-3.621830e+00
7.990000	-3.622480e+00
8.000000	-3.623110e+00
