# E(GeV)	-Im_Tmatrix(GeV^-2)
0.000000	9.597630e-06
0.010000	1.014920e-05
0.020000	1.070080e-05
0.030000	1.125240e-05
0.040000	1.180400e-05
0.050000	1.235560e-05
0.060000	1.311170e-05
0.070000	1.394050e-05
0.080000	1.484190e-05
0.090000	1.581590e-05
0.100000	1.686270e-05
0.110000	1.790600e-05
0.120000	1.906000e-05
0.130000	2.032470e-05
0.140000	2.170000e-05
0.150000	2.318600e-05
0.160000	2.467740e-05
0.170000	2.633210e-05
0.180000	2.815000e-05
0.190000	3.013110e-05
0.200000	3.227550e-05
0.210000	3.447840e-05
0.220000	3.689690e-05
0.230000	3.953090e-05
0.240000	4.238030e-05
0.250000	4.544530e-05
0.260000	4.851270e-05
0.270000	5.190220e-05
0.280000	5.561370e-05
0.290000	5.964710e-05
0.300000	6.400260e-05
0.310000	6.842290e-05
0.320000	7.329370e-05
0.330000	7.861520e-05
0.340000	8.438710e-05
0.350000	9.060970e-05
0.360000	9.695410e-05
0.370000	1.039130e-04
0.380000	1.114880e-04
0.390000	1.196770e-04
0.400000	1.284810e-04
0.410000	1.374200e-04
0.420000	1.472130e-04
0.430000	1.578620e-04
0.440000	1.693660e-04
0.450000	1.817250e-04
0.460000	1.942760e-04
0.470000	2.080130e-04
0.480000	2.229370e-04
0.490000	2.390470e-04
0.500000	2.563430e-04
0.510000	2.739400e-04
0.520000	2.931660e-04
0.530000	3.140210e-04
0.540000	3.365050e-04
0.550000	3.606190e-04
0.560000	3.849860e-04
0.570000	4.116700e-04
0.580000	4.406710e-04
0.590000	4.719900e-04
0.600000	5.056270e-04
0.610000	5.398280e-04
0.620000	5.772230e-04
0.630000	6.178130e-04
0.640000	6.615960e-04
0.650000	7.085730e-04
0.660000	7.558890e-04
0.670000	8.078270e-04
0.680000	8.643860e-04
0.690000	9.255660e-04
0.700000	9.913670e-04
0.710000	1.058090e-03
0.720000	1.131280e-03
0.730000	1.210940e-03
0.740000	1.297080e-03
0.750000	1.389690e-03
0.760000	1.482800e-03
0.770000	1.585380e-03
0.780000	1.697410e-03
0.790000	1.818900e-03
0.800000	1.949850e-03
0.810000	2.082160e-03
0.820000	2.227980e-03
0.830000	2.387310e-03
0.840000	2.560130e-03
0.850000	2.746460e-03
0.860000	2.934470e-03
0.870000	3.141900e-03
0.880000	3.368730e-03
0.890000	3.614970e-03
0.900000	3.880620e-03
0.910000	4.145960e-03
0.920000	4.440570e-03
0.930000	4.764440e-03
0.940000	5.117580e-03
0.950000	5.499990e-03
0.960000	5.888750e-03
0.970000	6.318230e-03
0.980000	6.788440e-03
0.990000	7.299370e-03
1.000000	7.851040e-03
1.010000	8.400790e-03
1.020000	9.012590e-03
1.030000	9.686440e-03
1.040000	1.042230e-02
1.050000	1.122030e-02
1.060000	1.202850e-02
1.070000	1.292470e-02
1.080000	1.390870e-02
1.090000	1.498070e-02
1.100000	1.614050e-02
1.110000	1.728940e-02
1.120000	1.857560e-02
1.130000	1.999910e-02
1.140000	2.156000e-02
1.150000	2.325820e-02
1.160000	2.497310e-02
1.170000	2.688560e-02
1.180000	2.899580e-02
1.190000	3.130370e-02
1.200000	3.380940e-02
1.210000	3.629060e-02
1.220000	3.908060e-02
1.230000	4.217930e-02
1.240000	4.558680e-02
1.250000	4.930310e-02
1.260000	5.301410e-02
1.270000	5.719090e-02
1.280000	6.183340e-02
1.290000	6.694170e-02
1.300000	7.251580e-02
1.310000	7.812210e-02
1.320000	8.441090e-02
1.330000	9.138220e-02
1.340000	9.903600e-02
1.350000	1.073720e-01
1.360000	1.155880e-01
1.370000	1.248880e-01
1.380000	1.352710e-01
1.390000	1.467390e-01
1.400000	1.592910e-01
1.410000	1.718280e-01
1.420000	1.859990e-01
1.430000	2.018030e-01
1.440000	2.192420e-01
1.450000	2.383140e-01
1.460000	2.573410e-01
1.470000	2.788410e-01
1.480000	3.028150e-01
1.490000	3.292610e-01
1.500000	3.581810e-01
1.510000	3.871890e-01
1.520000	4.198620e-01
1.530000	4.562000e-01
1.540000	4.962040e-01
1.550000	5.398740e-01
1.560000	5.837770e-01
1.570000	6.330620e-01
1.580000	6.877270e-01
1.590000	7.477730e-01
1.600000	8.132000e-01
1.610000	8.796580e-01
1.620000	9.536720e-01
1.630000	1.035240e+00
1.640000	1.124360e+00
1.650000	1.221040e+00
1.660000	1.320280e+00
1.670000	1.429560e+00
1.680000	1.548910e+00
1.690000	1.678310e+00
1.700000	1.817770e+00
1.710000	1.963250e+00
1.720000	2.120800e+00
1.730000	2.290420e+00
1.740000	2.472120e+00
1.750000	2.665900e+00
1.760000	2.871540e+00
1.770000	3.089370e+00
1.780000	3.319360e+00
1.790000	3.561530e+00
1.800000	3.815870e+00
1.810000	4.090320e+00
1.820000	4.372980e+00
1.830000	4.663840e+00
1.840000	4.962910e+00
1.850000	5.270170e+00
1.860000	5.603540e+00
1.870000	5.936160e+00
1.880000	6.268040e+00
1.890000	6.599180e+00
1.900000	6.929580e+00
1.910000	7.283050e+00
1.920000	7.623880e+00
1.930000	7.952060e+00
1.940000	8.267590e+00
1.950000	8.570470e+00
1.960000	8.879520e+00
1.970000	9.166510e+00
1.980000	9.431450e+00
1.990000	9.674340e+00
2.000000	9.895180e+00
2.010000	1.009860e+01
2.020000	1.027770e+01
2.030000	1.043240e+01
2.040000	1.056270e+01
2.050000	1.066860e+01
2.060000	1.074170e+01
2.070000	1.079460e+01
2.080000	1.082750e+01
2.090000	1.084020e+01
2.100000	1.083280e+01
2.110000	1.079120e+01
2.120000	1.073660e+01
2.130000	1.066890e+01
2.140000	1.058820e+01
2.150000	1.049450e+01
2.160000	1.037460e+01
2.170000	1.024820e+01
2.180000	1.011550e+01
2.190000	9.976350e+00
2.200000	9.830850e+00
2.210000	9.669570e+00
2.220000	9.506610e+00
2.230000	9.341970e+00
2.240000	9.175650e+00
2.250000	9.007640e+00
2.260000	8.832330e+00
2.270000	8.658150e+00
2.280000	8.485110e+00
2.290000	8.313200e+00
2.300000	8.142430e+00
2.310000	7.969850e+00
2.320000	7.799870e+00
2.330000	7.632500e+00
2.340000	7.467730e+00
2.350000	7.305560e+00
2.360000	7.144900e+00
2.370000	6.987390e+00
2.380000	6.833030e+00
2.390000	6.681820e+00
2.400000	6.533760e+00
2.410000	6.388510e+00
2.420000	6.246580e+00
2.430000	6.107970e+00
2.440000	5.972680e+00
2.450000	5.840700e+00
2.460000	5.712300e+00
2.470000	5.587080e+00
2.480000	5.465060e+00
2.490000	5.346220e+00
2.500000	5.230570e+00
2.510000	5.118610e+00
2.520000	5.009590e+00
2.530000	4.903510e+00
2.540000	4.800370e+00
2.550000	4.700160e+00
2.560000	4.603420e+00
2.570000	4.509360e+00
2.580000	4.417960e+00
2.590000	4.329230e+00
2.600000	4.243170e+00
2.610000	4.160250e+00
2.620000	4.079760e+00
2.630000	4.001710e+00
2.640000	3.926090e+00
2.650000	3.852900e+00
2.660000	3.783120e+00
2.670000	3.715280e+00
2.680000	3.649380e+00
2.690000	3.585430e+00
2.700000	3.523420e+00
2.710000	3.463520e+00
2.720000	3.405480e+00
2.730000	3.349300e+00
2.740000	3.294980e+00
2.750000	3.242530e+00
2.760000	3.192610e+00
2.770000	3.144230e+00
2.780000	3.097360e+00
2.790000	3.052020e+00
2.800000	3.008200e+00
2.810000	2.966410e+00
2.820000	2.925880e+00
2.830000	2.886640e+00
2.840000	2.848660e+00
2.850000	2.811960e+00
2.860000	2.777000e+00
2.870000	2.743070e+00
2.880000	2.710190e+00
2.890000	2.678350e+00
2.900000	2.647550e+00
2.910000	2.618220e+00
2.920000	2.589720e+00
2.930000	2.562040e+00
2.940000	2.535180e+00
2.950000	2.509150e+00
2.960000	2.484340e+00
2.970000	2.460160e+00
2.980000	2.436600e+00
2.990000	2.413680e+00
3.000000	2.391380e+00
3.010000	2.370040e+00
3.020000	2.349160e+00
3.030000	2.328750e+00
3.040000	2.308800e+00
3.050000	2.289320e+00
3.060000	2.270570e+00
3.070000	2.252150e+00
3.080000	2.234060e+00
3.090000	2.216280e+00
3.100000	2.198830e+00
3.110000	2.181970e+00
3.120000	2.165300e+00
3.130000	2.148820e+00
3.140000	2.132530e+00
3.150000	2.116430e+00
3.160000	2.100670e+00
3.170000	2.085030e+00
3.180000	2.069500e+00
3.190000	2.054090e+00
3.200000	2.038800e+00
3.210000	2.023770e+00
3.220000	2.008780e+00
3.230000	1.993840e+00
3.240000	1.978950e+00
3.250000	1.964100e+00
3.260000	1.949390e+00
3.270000	1.934680e+00
3.280000	1.919980e+00
3.290000	1.905280e+00
3.300000	1.890590e+00
3.310000	1.875960e+00
3.320000	1.861310e+00
3.330000	1.846640e+00
3.340000	1.831950e+00
3.350000	1.817240e+00
3.360000	1.802520e+00
3.370000	1.787780e+00
3.380000	1.773000e+00
3.390000	1.758190e+00
3.400000	1.743350e+00
3.410000	1.728470e+00
3.420000	1.713560e+00
3.430000	1.698620e+00
3.440000	1.683650e+00
3.450000	1.668650e+00
3.460000	1.653610e+00
3.470000	1.638550e+00
3.480000	1.623470e+00
3.490000	1.608360e+00
3.500000	1.593220e+00
3.510000	1.578040e+00
3.520000	1.562840e+00
3.530000	1.547630e+00
3.540000	1.532410e+00
3.550000	1.517180e+00
3.560000	1.501900e+00
3.570000	1.486630e+00
3.580000	1.471360e+00
3.590000	1.456090e+00
3.600000	1.440830e+00
3.610000	1.425560e+00
3.620000	1.410290e+00
3.630000	1.395050e+00
3.640000	1.379820e+00
3.650000	1.364600e+00
3.660000	1.349350e+00
3.670000	1.334140e+00
3.680000	1.318970e+00
3.690000	1.303850e+00
3.700000	1.288760e+00
3.710000	1.273700e+00
3.720000	1.258690e+00
3.730000	1.243730e+00
3.740000	1.228820e+00
3.750000	1.213960e+00
3.760000	1.199130e+00
3.770000	1.184360e+00
3.780000	1.169660e+00
3.790000	1.155020e+00
3.800000	1.140450e+00
3.810000	1.125910e+00
3.820000	1.111450e+00
3.830000	1.097070e+00
3.840000	1.082770e+00
3.850000	1.068550e+00
3.860000	1.054380e+00
3.870000	1.040300e+00
3.880000	1.026320e+00
3.890000	1.012420e+00
3.900000	9.986140e-01
3.910000	9.848820e-01
3.920000	9.712480e-01
3.930000	9.577110e-01
3.940000	9.442720e-01
3.950000	9.309300e-01
3.960000	9.176690e-01
3.970000	9.045140e-01
3.980000	8.914650e-01
3.990000	8.785230e-01
4.000000	8.656870e-01
4.010000	8.529460e-01
4.020000	8.403180e-01
4.030000	8.278010e-01
4.040000	8.153980e-01
4.050000	8.031060e-01
4.060000	7.909140e-01
4.070000	7.788400e-01
4.080000	7.668860e-01
4.090000	7.550510e-01
4.100000	7.433340e-01
4.110000	7.317380e-01
4.120000	7.202600e-01
4.130000	7.089010e-01
4.140000	6.976600e-01
4.150000	6.865380e-01
4.160000	6.755300e-01
4.170000	6.646430e-01
4.180000	6.538770e-01
4.190000	6.432310e-01
4.200000	6.327050e-01
4.210000	6.222960e-01
4.220000	6.120090e-01
4.230000	6.018450e-01
4.240000	5.918030e-01
4.250000	5.818840e-01
4.260000	5.720960e-01
4.270000	5.624260e-01
4.280000	5.528750e-01
4.290000	5.434440e-01
4.300000	5.341310e-01
4.310000	5.249380e-01
4.320000	5.158640e-01
4.330000	5.069080e-01
4.340000	4.980700e-01
4.350000	4.893510e-01
4.360000	4.807540e-01
4.370000	4.722740e-01
4.380000	4.639100e-01
4.390000	4.556630e-01
4.400000	4.475330e-01
4.410000	4.395300e-01
4.420000	4.316380e-01
4.430000	4.238580e-01
4.440000	4.161900e-01
4.450000	4.086340e-01
4.460000	4.012010e-01
4.470000	3.938740e-01
4.480000	3.866540e-01
4.490000	3.795400e-01
4.500000	3.725340e-01
4.510000	3.656430e-01
4.520000	3.588540e-01
4.530000	3.521680e-01
4.540000	3.455850e-01
4.550000	3.391050e-01
4.560000	3.327360e-01
4.570000	3.264660e-01
4.580000	3.202940e-01
4.590000	3.142190e-01
4.600000	3.082430e-01
4.610000	3.023750e-01
4.620000	2.966000e-01
4.630000	2.909180e-01
4.640000	2.853300e-01
4.650000	2.798340e-01
4.660000	2.744540e-01
4.670000	2.691560e-01
4.680000	2.639400e-01
4.690000	2.588060e-01
4.700000	2.537550e-01
4.710000	2.487720e-01
4.720000	2.438790e-01
4.730000	2.390750e-01
4.740000	2.343610e-01
4.750000	2.297360e-01
4.760000	2.252280e-01
4.770000	2.207950e-01
4.780000	2.164390e-01
4.790000	2.121590e-01
4.800000	2.079550e-01
4.810000	2.038420e-01
4.820000	1.997970e-01
4.830000	1.958210e-01
4.840000	1.919140e-01
4.850000	1.880760e-01
4.860000	1.843150e-01
4.870000	1.806180e-01
4.880000	1.769860e-01
4.890000	1.734190e-01
4.900000	1.699160e-01
4.910000	1.664830e-01
4.920000	1.631120e-01
4.930000	1.598030e-01
4.940000	1.565550e-01
4.950000	1.533690e-01
4.960000	1.502560e-01
4.970000	1.471980e-01
4.980000	1.441970e-01
4.990000	1.412520e-01
5.000000	1.383620e-01
5.010000	1.355380e-01
5.020000	1.327650e-01
5.030000	1.300430e-01
5.040000	1.273730e-01
5.050000	1.247550e-01
5.060000	1.221970e-01
5.070000	1.196870e-01
5.080000	1.172230e-01
5.090000	1.148060e-01
5.100000	1.124360e-01
5.110000	1.101210e-01
5.120000	1.078480e-01
5.130000	1.056190e-01
5.140000	1.034320e-01
5.150000	1.012890e-01
5.160000	9.919440e-02
5.170000	9.713980e-02
5.180000	9.512490e-02
5.190000	9.314950e-02
5.200000	9.121370e-02
5.210000	8.932550e-02
5.220000	8.747280e-02
5.230000	8.565580e-02
5.240000	8.387440e-02
5.250000	8.212860e-02
5.260000	8.042400e-02
5.270000	7.875220e-02
5.280000	7.711330e-02
5.290000	7.550720e-02
5.300000	7.393390e-02
5.310000	7.240100e-02
5.320000	7.089720e-02
5.330000	6.942250e-02
5.340000	6.797670e-02
5.350000	6.656000e-02
5.360000	6.517690e-02
5.370000	6.382060e-02
5.380000	6.249100e-02
5.390000	6.118830e-02
5.400000	5.991230e-02
5.410000	5.866870e-02
5.420000	5.744920e-02
5.430000	5.625350e-02
5.440000	5.508180e-02
5.450000	5.393400e-02
5.460000	5.281230e-02
5.470000	5.171350e-02
5.480000	5.063750e-02
5.490000	4.958430e-02
5.500000	4.855400e-02
5.510000	4.755420e-02
5.520000	4.657330e-02
5.530000	4.561160e-02
5.540000	4.466890e-02
5.550000	4.374530e-02
5.560000	4.284340e-02
5.570000	4.195930e-02
5.580000	4.109280e-02
5.590000	4.024410e-02
5.600000	3.941310e-02
5.610000	3.860300e-02
5.620000	3.780890e-02
5.630000	3.703110e-02
5.640000	3.626930e-02
5.650000	3.552360e-02
5.660000	3.479690e-02
5.670000	3.408480e-02
5.680000	3.338750e-02
5.690000	3.270490e-02
5.700000	3.203710e-02
5.710000	3.138750e-02
5.720000	3.075080e-02
5.730000	3.012710e-02
5.740000	2.951640e-02
5.750000	2.891860e-02
5.760000	2.833640e-02
5.770000	2.776580e-02
5.780000	2.720690e-02
5.790000	2.665970e-02
5.800000	2.612410e-02
5.810000	2.560280e-02
5.820000	2.509190e-02
5.830000	2.459140e-02
5.840000	2.410110e-02
5.850000	2.362130e-02
5.860000	2.315370e-02
5.870000	2.269550e-02
5.880000	2.224670e-02
5.890000	2.180740e-02
5.900000	2.137740e-02
5.910000	2.095880e-02
5.920000	2.054870e-02
5.930000	2.014700e-02
5.940000	1.975380e-02
5.950000	1.936900e-02
5.960000	1.899470e-02
5.970000	1.862780e-02
5.980000	1.826840e-02
5.990000	1.791630e-02
6.000000	1.757170e-02
6.010000	1.723580e-02
6.020000	1.690670e-02
6.030000	1.658430e-02
6.040000	1.626860e-02
6.050000	1.595960e-02
6.060000	1.565880e-02
6.070000	1.536390e-02
6.080000	1.507510e-02
6.090000	1.479220e-02
6.100000	1.451530e-02
6.110000	1.425300e-02
6.120000	1.399240e-02
6.130000	1.373340e-02
6.140000	1.347610e-02
6.150000	1.322050e-02
6.160000	1.295380e-02
6.170000	1.269510e-02
6.180000	1.244450e-02
6.190000	1.220200e-02
6.200000	1.196760e-02
6.210000	1.174720e-02
6.220000	1.153190e-02
6.230000	1.132170e-02
6.240000	1.111660e-02
6.250000	1.091660e-02
6.260000	1.072370e-02
6.270000	1.053490e-02
6.280000	1.035010e-02
6.290000	1.016940e-02
6.300000	9.992680e-03
6.310000	9.820620e-03
6.320000	9.652330e-03
6.330000	9.487810e-03
6.340000	9.327060e-03
6.350000	9.170080e-03
6.360000	9.018990e-03
6.370000	8.870610e-03
6.380000	8.724940e-03
6.390000	8.581980e-03
6.400000	8.441730e-03
6.410000	8.304850e-03
6.420000	8.170340e-03
6.430000	8.038220e-03
6.440000	7.908480e-03
6.450000	7.781120e-03
6.460000	7.658120e-03
6.470000	7.536510e-03
6.480000	7.416300e-03
6.490000	7.297480e-03
6.500000	7.180070e-03
6.510000	7.060860e-03
6.520000	6.944650e-03
6.530000	6.831420e-03
6.540000	6.721190e-03
6.550000	6.613940e-03
6.560000	6.511340e-03
6.570000	6.410900e-03
6.580000	6.312630e-03
6.590000	6.216520e-03
6.600000	6.122570e-03
6.610000	6.033130e-03
6.620000	5.944680e-03
6.630000	5.857230e-03
6.640000	5.770770e-03
6.650000	5.685300e-03
6.660000	5.598810e-03
6.670000	5.514330e-03
6.680000	5.431850e-03
6.690000	5.351370e-03
6.700000	5.272900e-03
6.710000	5.199040e-03
6.720000	5.125880e-03
6.730000	5.053420e-03
6.740000	4.981650e-03
6.750000	4.910570e-03
6.760000	4.837910e-03
6.770000	4.767080e-03
6.780000	4.698090e-03
6.790000	4.630940e-03
6.800000	4.565620e-03
6.810000	4.503820e-03
6.820000	4.443010e-03
6.830000	4.383200e-03
6.840000	4.324390e-03
6.850000	4.266570e-03
6.860000	4.209710e-03
6.870000	4.153870e-03
6.880000	4.099040e-03
6.890000	4.045230e-03
6.900000	3.992420e-03
6.910000	3.943250e-03
6.920000	3.893790e-03
6.930000	3.844030e-03
6.940000	3.793970e-03
6.950000	3.743610e-03
6.960000	3.688810e-03
6.970000	3.635790e-03
6.980000	3.584540e-03
6.990000	3.535080e-03
7.000000	3.487400e-03
7.010000	3.442540e-03
7.020000	3.398950e-03
7.030000	3.356610e-03
7.040000	3.315540e-03
7.050000	3.275740e-03
7.060000	3.238150e-03
7.070000	3.201340e-03
7.080000	3.165330e-03
7.090000	3.130100e-03
7.100000	3.095670e-03
7.110000	3.062050e-03
7.120000	3.029200e-03
7.130000	2.997140e-03
7.140000	2.965850e-03
7.150000	2.935350e-03
7.160000	2.906240e-03
7.170000	2.877600e-03
7.180000	2.849420e-03
7.190000	2.821720e-03
7.200000	2.794490e-03
7.210000	2.767330e-03
7.220000	2.740840e-03
7.230000	2.715010e-03
7.240000	2.689860e-03
7.250000	2.665390e-03
7.260000	2.642260e-03
7.270000	2.619470e-03
7.280000	2.597010e-03
7.290000	2.574870e-03
7.300000	2.553070e-03
7.310000	2.531610e-03
7.320000	2.510480e-03
7.330000	2.489670e-03
7.340000	2.469180e-03
7.350000	2.449010e-03
7.360000	2.429270e-03
7.370000	2.409800e-03
7.380000	2.390610e-03
7.390000	2.371680e-03
7.400000	2.353030e-03
7.410000	2.334590e-03
7.420000	2.316450e-03
7.430000	2.298610e-03
7.440000	2.281080e-03
7.450000	2.263850e-03
7.460000	2.247020e-03
7.470000	2.230450e-03
7.480000	2.214130e-03
7.490000	2.198050e-03
7.500000	2.182220e-03
7.510000	2.166780e-03
7.520000	2.151530e-03
7.530000	2.136450e-03
7.540000	2.121550e-03
7.550000	2.106830e-03
7.560000	2.092250e-03
7.570000	2.077870e-03
7.580000	2.063690e-03
7.590000	2.049730e-03
7.600000	2.035970e-03
7.610000	2.022400e-03
7.620000	2.009050e-03
7.630000	1.995910e-03
7.640000	1.982980e-03
7.650000	1.970260e-03
7.660000	1.957840e-03
7.670000	1.945580e-03
7.680000	1.933500e-03
7.690000	1.921580e-03
7.700000	1.909830e-03
7.710000	1.898330e-03
7.720000	1.886960e-03
7.730000	1.875710e-03
7.740000	1.864590e-03
7.750000	1.853590e-03
7.760000	1.842670e-03
7.770000	1.831900e-03
7.780000	1.821270e-03
7.790000	1.810790e-03
7.800000	1.800460e-03
7.810000	1.790310e-03
7.820000	1.780290e-03
7.830000	1.770390e-03
7.840000	1.760630e-03
7.850000	1.750990e-03
7.860000	1.741600e-03
7.870000	1.732280e-03
7.880000	1.723020e-03
7.890000	1.713830e-03
7.900000	1.704700e-03
7.910000	1.695490e-03
7.920000	1.686420e-03
7.930000	1.677480e-03
7.940000	1.668680e-03
7.950000	1.660010e-03
7.960000	1.651710e-03
7.970000	1.643430e-03
7.980000	1.635160e-03
7.990000	1.626910e-03
8.000000	1.618660e-03
