# omega(GeV)	rho(GeV^-1)
-1.000000	-2.847410e-06
-0.995000	-2.960980e-05
-0.990000	-5.665600e-05
-0.985000	-8.398930e-05
-0.980000	-1.116130e-04
-0.975000	-1.395310e-04
-0.970000	-1.677460e-04
-0.965000	-1.962630e-04
-0.960000	-2.250850e-04
-0.955000	-2.542150e-04
-0.950000	-2.836570e-04
-0.945000	-3.119910e-04
-0.940000	-3.403700e-04
-0.935000	-3.687940e-04
-0.930000	-3.972640e-04
-0.925000	-4.257790e-04
-0.920000	-4.543410e-04
-0.915000	-4.829480e-04
-0.910000	-5.116030e-04
-0.905000	-5.403040e-04
-0.900000	-5.690520e-04
-0.895000	-5.979020e-04
-0.890000	-6.267900e-04
-0.885000	-6.557150e-04
-0.880000	-6.846770e-04
-0.875000	-7.136750e-04
-0.870000	-7.427090e-04
-0.865000	-7.717770e-04
-0.860000	-8.008800e-04
-0.855000	-8.300160e-04
-0.850000	-8.591850e-04
-0.845000	-8.848210e-04
-0.840000	-9.112390e-04
-0.835000	-9.384530e-04
-0.830000	-9.664770e-04
-0.825000	-9.953260e-04
-0.820000	-1.025020e-03
-0.815000	-1.055560e-03
-0.810000	-1.086970e-03
-0.805000	-1.119280e-03
-0.800000	-1.152480e-03
-0.795000	-1.197220e-03
-0.790000	-1.240660e-03
-0.785000	-1.282770e-03
-0.780000	-1.323530e-03
-0.775000	-1.362920e-03
-0.770000	-1.400890e-03
-0.765000	-1.437420e-03
-0.760000	-1.472480e-03
-0.755000	-1.506040e-03
-0.750000	-1.538060e-03
-0.745000	-1.555830e-03
-0.740000	-1.574670e-03
-0.735000	-1.594600e-03
-0.730000	-1.615630e-03
-0.725000	-1.637800e-03
-0.720000	-1.661130e-03
-0.715000	-1.685630e-03
-0.710000	-1.711330e-03
-0.705000	-1.738250e-03
-0.700000	-1.766420e-03
-0.695000	-1.803130e-03
-0.690000	-1.839610e-03
-0.685000	-1.875850e-03
-0.680000	-1.911830e-03
-0.675000	-1.947560e-03
-0.670000	-1.983020e-03
-0.665000	-2.018210e-03
-0.660000	-2.053120e-03
-0.655000	-2.087740e-03
-0.650000	-2.122060e-03
-0.645000	-2.152100e-03
-0.640000	-2.182660e-03
-0.635000	-2.213750e-03
-0.630000	-2.245390e-03
-0.625000	-2.277570e-03
-0.620000	-2.310320e-03
-0.615000	-2.343630e-03
-0.610000	-2.377530e-03
-0.605000	-2.412020e-03
-0.600000	-2.447110e-03
-0.595000	-2.485600e-03
-0.590000	-2.524120e-03
-0.585000	-2.562700e-03
-0.580000	-2.601310e-03
-0.575000	-2.639970e-03
-0.570000	-2.678680e-03
-0.565000	-2.717420e-03
-0.560000	-2.756200e-03
-0.555000	-2.795010e-03
-0.550000	-2.833860e-03
-0.545000	-2.873660e-03
-0.540000	-2.913300e-03
-0.535000	-2.952770e-03
-0.530000	-2.992070e-03
-0.525000	-3.031190e-03
-0.520000	-3.070130e-03
-0.515000	-3.108870e-03
-0.510000	-3.147410e-03
-0.505000	-3.185730e-03
-0.500000	-3.223840e-03
-0.495000	-3.260140e-03
-0.490000	-3.296520e-03
-0.485000	-3.332990e-03
-0.480000	-3.369550e-03
-0.475000	-3.406190e-03
-0.470000	-3.442910e-03
-0.465000	-3.479720e-03
-0.460000	-3.516610e-03
-0.455000	-3.553570e-03
-0.450000	-3.590620e-03
-0.445000	-3.627520e-03
-0.440000	-3.664540e-03
-0.435000	-3.701690e-03
-0.430000	-3.738950e-03
-0.425000	-3.776330e-03
-0.420000	-3.813830e-03
-0.415000	-3.851440e-03
-0.410000	-3.889170e-03
-0.405000	-3.927020e-03
-0.400000	-3.964980e-03
-0.395000	-4.005440e-03
-0.390000	-4.045520e-03
-0.385000	-4.085210e-03
-0.380000	-4.124480e-03
-0.375000	-4.163330e-03
-0.370000	-4.201730e-03
-0.365000	-4.239670e-03
-0.360000	-4.277140e-03
-0.355000	-4.314100e-03
-0.350000	-4.350540e-03
-0.345000	-4.384180e-03
-0.340000	-4.417710e-03
-0.335000	-4.451140e-03
-0.330000	-4.484460e-03
-0.325000	-4.517660e-03
-0.320000	-4.550730e-03
-0.315000	-4.583650e-03
-0.310000	-4.616430e-03
-0.305000	-4.649050e-03
-0.300000	-4.681500e-03
-0.295000	-4.720930e-03
-0.290000	-4.758710e-03
-0.285000	-4.794800e-03
-0.280000	-4.829120e-03
-0.275000	-4.861610e-03
-0.270000	-4.892200e-03
-0.265000	-4.920830e-03
-0.260000	-4.947420e-03
-0.255000	-4.971900e-03
-0.250000	-4.994180e-03
-0.245000	-5.012090e-03
-0.240000	-5.028060e-03
-0.235000	-5.042030e-03
-0.230000	-5.053910e-03
-0.225000	-5.063630e-03
-0.220000	-5.071110e-03
-0.215000	-5.076260e-03
-0.210000	-5.078990e-03
-0.205000	-5.079210e-03
-0.200000	-5.076830e-03
-0.195000	-5.071080e-03
-0.190000	-5.062650e-03
-0.185000	-5.051440e-03
-0.180000	-5.037340e-03
-0.175000	-5.020240e-03
-0.170000	-5.000020e-03
-0.165000	-4.976550e-03
-0.160000	-4.949720e-03
-0.155000	-4.919370e-03
-0.150000	-4.885380e-03
-0.145000	-4.855380e-03
-0.140000	-4.819890e-03
-0.135000	-4.778700e-03
-0.130000	-4.731550e-03
-0.125000	-4.678210e-03
-0.120000	-4.618400e-03
-0.115000	-4.551860e-03
-0.110000	-4.478300e-03
-0.105000	-4.397410e-03
-0.100000	-4.308890e-03
-0.095000	-4.221220e-03
-0.090000	-4.123520e-03
-0.085000	-4.015340e-03
-0.080000	-3.896200e-03
-0.075000	-3.765610e-03
-0.070000	-3.623040e-03
-0.065000	-3.467960e-03
-0.060000	-3.299770e-03
-0.055000	-3.117870e-03
-0.050000	-2.921610e-03
-0.045000	-2.726030e-03
-0.040000	-2.511680e-03
-0.035000	-2.277660e-03
-0.030000	-2.023000e-03
-0.025000	-1.746670e-03
-0.020000	-1.447590e-03
-0.015000	-1.124630e-03
-0.010000	-7.765810e-04
-0.005000	-4.021540e-04
0.000000	6.433150e-17
0.005000	4.088770e-04
0.010000	8.526690e-04
0.015000	1.333240e-03
0.020000	1.852580e-03
0.025000	2.412770e-03
0.030000	3.016070e-03
0.035000	3.664840e-03
0.040000	4.361620e-03
0.045000	5.109080e-03
0.050000	5.910090e-03
0.055000	6.725130e-03
0.060000	7.607890e-03
0.065000	8.562340e-03
0.070000	9.592760e-03
0.075000	1.070370e-02
0.080000	1.189990e-02
0.085000	1.318670e-02
0.090000	1.456960e-02
0.095000	1.605440e-02
0.100000	1.764760e-02
0.105000	1.930860e-02
0.110000	2.110090e-02
0.115000	2.303290e-02
0.120000	2.511340e-02
0.125000	2.735200e-02
0.130000	2.975900e-02
0.135000	3.234500e-02
0.140000	3.512190e-02
0.145000	3.810210e-02
0.150000	4.129900e-02
0.155000	4.471400e-02
0.160000	4.837940e-02
0.165000	5.231130e-02
0.170000	5.652670e-02
0.175000	6.104380e-02
0.180000	6.588190e-02
0.185000	7.106130e-02
0.190000	7.660390e-02
0.195000	8.253240e-02
0.200000	8.887100e-02
0.205000	9.566920e-02
0.210000	1.029290e-01
0.215000	1.106780e-01
0.220000	1.189430e-01
0.225000	1.277550e-01
0.230000	1.371420e-01
0.235000	1.471350e-01
0.240000	1.577670e-01
0.245000	1.690680e-01
0.250000	1.810700e-01
0.255000	1.939640e-01
0.260000	2.076040e-01
0.265000	2.220150e-01
0.270000	2.372190e-01
0.275000	2.532330e-01
0.280000	2.700730e-01
0.285000	2.877490e-01
0.290000	3.062660e-01
0.295000	3.256220e-01
0.300000	3.458070e-01
0.305000	3.671330e-01
0.310000	3.891830e-01
0.315000	4.119140e-01
0.320000	4.352710e-01
0.325000	4.591850e-01
0.330000	4.835800e-01
0.335000	5.083650e-01
0.340000	5.334400e-01
0.345000	5.586930e-01
0.350000	5.840050e-01
0.355000	6.094760e-01
0.360000	6.346700e-01
0.365000	6.594490e-01
0.370000	6.836760e-01
0.375000	7.072160e-01
0.380000	7.299380e-01
0.385000	7.517160e-01
0.390000	7.724360e-01
0.395000	7.919940e-01
0.400000	8.102960e-01
0.405000	8.270840e-01
0.410000	8.424870e-01
0.415000	8.564710e-01
0.420000	8.690200e-01
0.425000	8.801300e-01
0.430000	8.898120e-01
0.435000	8.980880e-01
0.440000	9.049910e-01
0.445000	9.105640e-01
0.450000	9.148590e-01
0.455000	9.179790e-01
0.460000	9.199230e-01
0.465000	9.207640e-01
0.470000	9.205730e-01
0.475000	9.194280e-01
0.480000	9.174010e-01
0.485000	9.145680e-01
0.490000	9.110000e-01
0.495000	9.067700e-01
0.500000	9.019440e-01
0.505000	8.960510e-01
0.510000	8.898190e-01
0.515000	8.833030e-01
0.520000	8.765520e-01
0.525000	8.696110e-01
0.530000	8.625200e-01
0.535000	8.553170e-01
0.540000	8.480330e-01
0.545000	8.406980e-01
0.550000	8.333390e-01
0.555000	8.259590e-01
0.560000	8.186130e-01
0.565000	8.113140e-01
0.570000	8.040730e-01
0.575000	7.968990e-01
0.580000	7.898010e-01
0.585000	7.827850e-01
0.590000	7.758590e-01
0.595000	7.690260e-01
0.600000	7.622920e-01
0.605000	7.556830e-01
0.610000	7.491720e-01
0.615000	7.427640e-01
0.620000	7.364600e-01
0.625000	7.302630e-01
0.630000	7.241740e-01
0.635000	7.181940e-01
0.640000	7.123240e-01
0.645000	7.065640e-01
0.650000	7.009150e-01
0.655000	6.953150e-01
0.660000	6.898420e-01
0.665000	6.844930e-01
0.670000	6.792680e-01
0.675000	6.741630e-01
0.680000	6.691780e-01
0.685000	6.643100e-01
0.690000	6.595580e-01
0.695000	6.549180e-01
0.700000	6.503910e-01
0.705000	6.459510e-01
0.710000	6.416250e-01
0.715000	6.374100e-01
0.720000	6.333040e-01
0.725000	6.293040e-01
0.730000	6.254080e-01
0.735000	6.216130e-01
0.740000	6.179180e-01
0.745000	6.143210e-01
0.750000	6.108180e-01
0.755000	6.074550e-01
0.760000	6.041730e-01
0.765000	6.009690e-01
0.770000	5.978420e-01
0.775000	5.947910e-01
0.780000	5.918130e-01
0.785000	5.889070e-01
0.790000	5.860720e-01
0.795000	5.833070e-01
0.800000	5.806090e-01
0.805000	5.779620e-01
0.810000	5.753850e-01
0.815000	5.728750e-01
0.820000	5.704320e-01
0.825000	5.680540e-01
0.830000	5.657410e-01
0.835000	5.634910e-01
0.840000	5.613020e-01
0.845000	5.591740e-01
0.850000	5.571060e-01
0.855000	5.551250e-01
0.860000	5.531960e-01
0.865000	5.513160e-01
0.870000	5.494860e-01
0.875000	5.477050e-01
0.880000	5.459710e-01
0.885000	5.442850e-01
0.890000	5.426440e-01
0.895000	5.410490e-01
0.900000	5.394980e-01
0.905000	5.380040e-01
0.910000	5.365500e-01
0.915000	5.351360e-01
0.920000	5.337620e-01
0.925000	5.324260e-01
0.930000	5.311290e-01
0.935000	5.298700e-01
0.940000	5.286480e-01
0.945000	5.274630e-01
0.950000	5.263140e-01
0.955000	5.252060e-01
0.960000	5.241320e-01
0.965000	5.230920e-01
0.970000	5.220850e-01
0.975000	5.211110e-01
0.980000	5.201690e-01
0.985000	5.192600e-01
0.990000	5.183820e-01
0.995000	5.175360e-01
1.000000	5.167210e-01
1.005000	5.159490e-01
1.010000	5.152050e-01
1.015000	5.144880e-01
1.020000	5.137980e-01
1.025000	5.131350e-01
1.030000	5.124980e-01
1.035000	5.118870e-01
1.040000	5.113010e-01
1.045000	5.107410e-01
1.050000	5.102060e-01
1.055000	5.097210e-01
1.060000	5.092540e-01
1.065000	5.088060e-01
1.070000	5.083770e-01
1.075000	5.079650e-01
1.080000	5.075720e-01
1.090000	5.068390e-01
1.095000	5.064980e-01
1.100000	5.061730e-01
1.105000	5.058760e-01
1.110000	5.055920e-01
1.115000	5.053220e-01
1.120000	5.050660e-01
1.125000	5.048220e-01
1.130000	5.045920e-01
1.135000	5.043740e-01
1.140000	5.041690e-01
1.145000	5.039750e-01
1.150000	5.037940e-01
1.155000	5.036430e-01
1.160000	5.035000e-01
1.165000	5.033630e-01
1.170000	5.032320e-01
1.175000	5.031080e-01
1.180000	5.029900e-01
1.185000	5.028770e-01
1.190000	5.027700e-01
1.195000	5.026670e-01
1.200000	5.025690e-01
1.205000	5.024770e-01
1.210000	5.023890e-01
1.215000	5.023040e-01
1.220000	5.022220e-01
1.225000	5.021410e-01
1.230000	5.020630e-01
1.235000	5.019860e-01
1.240000	5.019100e-01
1.245000	5.018350e-01
1.250000	5.017590e-01
1.255000	5.017150e-01
1.260000	5.016630e-01
1.265000	5.016030e-01
1.270000	5.015350e-01
1.275000	5.014580e-01
1.280000	5.013710e-01
1.285000	5.012750e-01
1.290000	5.011680e-01
1.295000	5.010490e-01
1.300000	5.009190e-01
1.305000	5.007780e-01
1.310000	5.006230e-01
1.315000	5.004550e-01
1.320000	5.002720e-01
1.325000	5.000750e-01
1.330000	4.998630e-01
1.335000	4.996340e-01
1.340000	4.993900e-01
1.345000	4.991290e-01
1.350000	4.988510e-01
1.355000	4.985470e-01
1.360000	4.982270e-01
1.365000	4.978900e-01
1.370000	4.975350e-01
1.375000	4.971630e-01
1.380000	4.967720e-01
1.385000	4.963620e-01
1.390000	4.959330e-01
1.395000	4.954830e-01
1.400000	4.950120e-01
1.405000	4.945390e-01
1.410000	4.940390e-01
1.415000	4.935120e-01
1.420000	4.929590e-01
1.425000	4.923780e-01
1.430000	4.917690e-01
1.435000	4.911300e-01
1.440000	4.904630e-01
1.445000	4.897650e-01
1.450000	4.890360e-01
1.455000	4.882870e-01
1.460000	4.875030e-01
1.465000	4.866840e-01
1.470000	4.858300e-01
1.475000	4.849400e-01
1.480000	4.840140e-01
1.485000	4.830510e-01
1.490000	4.820510e-01
1.495000	4.810120e-01
1.500000	4.799350e-01
1.505000	4.788150e-01
1.510000	4.776560e-01
1.515000	4.764580e-01
1.520000	4.752220e-01
1.525000	4.739470e-01
1.530000	4.726310e-01
1.535000	4.712760e-01
1.540000	4.698800e-01
1.545000	4.684440e-01
1.550000	4.669660e-01
1.555000	4.654590e-01
1.560000	4.639070e-01
1.565000	4.623100e-01
1.570000	4.606680e-01
1.575000	4.589810e-01
1.580000	4.572490e-01
1.585000	4.554710e-01
1.590000	4.536490e-01
1.595000	4.517810e-01
1.600000	4.498690e-01
1.605000	4.479070e-01
1.610000	4.459030e-01
1.615000	4.438540e-01
1.620000	4.417630e-01
1.625000	4.396290e-01
1.630000	4.374520e-01
1.635000	4.352330e-01
1.640000	4.329720e-01
1.645000	4.306690e-01
1.650000	4.283250e-01
1.655000	4.259440e-01
1.660000	4.235210e-01
1.665000	4.210570e-01
1.670000	4.185520e-01
1.675000	4.160080e-01
1.680000	4.134250e-01
1.685000	4.108040e-01
1.690000	4.081450e-01
1.695000	4.054500e-01
1.700000	4.027190e-01
1.705000	3.999500e-01
1.710000	3.971480e-01
1.715000	3.943130e-01
1.720000	3.914460e-01
1.725000	3.885500e-01
1.730000	3.856230e-01
1.735000	3.826680e-01
1.740000	3.796860e-01
1.745000	3.766780e-01
1.750000	3.736440e-01
1.755000	3.705690e-01
1.760000	3.674750e-01
1.765000	3.643630e-01
1.770000	3.612340e-01
1.775000	3.580890e-01
1.780000	3.549300e-01
1.785000	3.517570e-01
1.790000	3.485710e-01
1.795000	3.453750e-01
1.800000	3.421680e-01
1.805000	3.389560e-01
1.810000	3.357350e-01
1.815000	3.325080e-01
1.820000	3.292740e-01
1.825000	3.260350e-01
1.830000	3.227920e-01
1.835000	3.195460e-01
1.840000	3.162970e-01
1.845000	3.130460e-01
1.850000	3.097950e-01
1.855000	3.065520e-01
1.860000	3.033090e-01
1.865000	3.000640e-01
1.870000	2.968210e-01
1.875000	2.935790e-01
1.880000	2.903390e-01
1.885000	2.871040e-01
1.890000	2.838720e-01
1.895000	2.806470e-01
1.900000	2.774280e-01
1.905000	2.742050e-01
1.910000	2.709930e-01
1.915000	2.677930e-01
1.920000	2.646060e-01
1.925000	2.614330e-01
1.930000	2.582740e-01
1.935000	2.551310e-01
1.940000	2.520030e-01
1.945000	2.488920e-01
1.950000	2.457980e-01
1.955000	2.427150e-01
1.960000	2.396520e-01
1.965000	2.366100e-01
1.970000	2.335890e-01
1.975000	2.305900e-01
1.980000	2.276120e-01
1.985000	2.246570e-01
1.990000	2.217250e-01
1.995000	2.188170e-01
2.000000	2.159310e-01
2.005000	2.130840e-01
2.010000	2.102570e-01
2.015000	2.074510e-01
2.020000	2.046670e-01
2.025000	2.019040e-01
2.030000	1.991640e-01
2.035000	1.964470e-01
2.040000	1.937530e-01
2.045000	1.910810e-01
2.050000	1.884330e-01
2.055000	1.857870e-01
2.060000	1.831700e-01
2.065000	1.805820e-01
2.070000	1.780230e-01
2.075000	1.754930e-01
2.080000	1.729930e-01
2.085000	1.705210e-01
2.090000	1.680790e-01
2.095000	1.656660e-01
2.100000	1.632830e-01
2.105000	1.609320e-01
2.110000	1.586090e-01
2.115000	1.563160e-01
2.120000	1.540510e-01
2.125000	1.518140e-01
2.130000	1.496050e-01
2.135000	1.474250e-01
2.140000	1.452720e-01
2.145000	1.431470e-01
2.150000	1.410490e-01
2.155000	1.389810e-01
2.160000	1.369400e-01
2.165000	1.349240e-01
2.170000	1.329340e-01
2.175000	1.309700e-01
2.180000	1.290310e-01
2.185000	1.271170e-01
2.190000	1.252280e-01
2.195000	1.233640e-01
2.200000	1.215250e-01
2.205000	1.197070e-01
2.210000	1.179140e-01
2.215000	1.161460e-01
2.220000	1.144030e-01
2.225000	1.126850e-01
2.230000	1.109900e-01
2.235000	1.093200e-01
2.240000	1.076740e-01
2.245000	1.060510e-01
2.250000	1.044510e-01
2.255000	1.028720e-01
2.260000	1.013160e-01
2.265000	9.978260e-02
2.270000	9.827230e-02
2.275000	9.678440e-02
2.280000	9.531860e-02
2.285000	9.387470e-02
2.290000	9.245240e-02
2.295000	9.105150e-02
2.300000	8.967160e-02
2.305000	8.831120e-02
2.310000	8.697170e-02
2.315000	8.565280e-02
2.320000	8.435420e-02
2.325000	8.307570e-02
2.330000	8.181680e-02
2.335000	8.057750e-02
2.340000	7.935730e-02
2.345000	7.815600e-02
2.350000	7.697330e-02
2.355000	7.581050e-02
2.360000	7.466550e-02
2.365000	7.353780e-02
2.370000	7.242740e-02
2.375000	7.133380e-02
2.380000	7.025700e-02
2.385000	6.919660e-02
2.390000	6.815240e-02
2.395000	6.712410e-02
2.400000	6.611160e-02
2.405000	6.511180e-02
2.410000	6.412800e-02
2.415000	6.315990e-02
2.420000	6.220730e-02
2.425000	6.126990e-02
2.430000	6.034750e-02
2.435000	5.943980e-02
2.440000	5.854670e-02
2.445000	5.766780e-02
2.450000	5.680300e-02
2.455000	5.595510e-02
2.460000	5.512000e-02
2.465000	5.429770e-02
2.470000	5.348780e-02
2.475000	5.269020e-02
2.480000	5.190480e-02
2.485000	5.113120e-02
2.490000	5.036940e-02
2.495000	4.961910e-02
2.500000	4.888030e-02
2.505000	4.814990e-02
2.510000	4.743110e-02
2.515000	4.672390e-02
2.520000	4.602800e-02
2.525000	4.534310e-02
2.530000	4.466920e-02
2.535000	4.400610e-02
2.540000	4.335350e-02
2.545000	4.271140e-02
2.550000	4.207950e-02
2.555000	4.145840e-02
2.560000	4.084700e-02
2.565000	4.024530e-02
2.570000	3.965300e-02
2.575000	3.906990e-02
2.580000	3.849600e-02
2.585000	3.793110e-02
2.590000	3.737510e-02
2.595000	3.682770e-02
2.600000	3.628890e-02
2.605000	3.575800e-02
2.610000	3.523550e-02
2.615000	3.472130e-02
2.620000	3.421520e-02
2.625000	3.371710e-02
2.630000	3.322680e-02
2.635000	3.274420e-02
2.640000	3.226930e-02
2.645000	3.180190e-02
2.650000	3.134180e-02
2.655000	3.088990e-02
2.660000	3.044500e-02
2.665000	3.000690e-02
2.670000	2.957540e-02
2.675000	2.915050e-02
2.680000	2.873200e-02
2.685000	2.831990e-02
2.690000	2.791400e-02
2.695000	2.751420e-02
2.700000	2.712050e-02
2.705000	2.673250e-02
2.710000	2.635050e-02
2.715000	2.597420e-02
2.720000	2.560360e-02
2.725000	2.523870e-02
2.730000	2.487930e-02
2.735000	2.452530e-02
2.740000	2.417670e-02
2.745000	2.383330e-02
2.750000	2.349510e-02
2.755000	2.316190e-02
2.760000	2.283370e-02
2.765000	2.251050e-02
2.770000	2.219220e-02
2.775000	2.187880e-02
2.780000	2.157020e-02
2.785000	2.126620e-02
2.790000	2.096690e-02
2.795000	2.067210e-02
2.800000	2.038170e-02
2.805000	2.009600e-02
2.810000	1.981450e-02
2.815000	1.953730e-02
2.820000	1.926420e-02
2.825000	1.899520e-02
2.830000	1.873030e-02
2.835000	1.846930e-02
2.840000	1.821230e-02
2.845000	1.795900e-02
2.850000	1.770960e-02
2.855000	1.746340e-02
2.860000	1.722110e-02
2.865000	1.698240e-02
2.870000	1.674740e-02
2.875000	1.651600e-02
2.880000	1.628820e-02
2.885000	1.606380e-02
2.890000	1.584290e-02
2.895000	1.562530e-02
2.900000	1.541110e-02
2.905000	1.520180e-02
2.910000	1.499530e-02
2.915000	1.479160e-02
2.920000	1.459060e-02
2.925000	1.439220e-02
2.930000	1.419650e-02
2.935000	1.400340e-02
2.940000	1.381290e-02
2.945000	1.362500e-02
2.950000	1.343950e-02
2.955000	1.325520e-02
2.960000	1.307370e-02
2.965000	1.289490e-02
2.970000	1.271880e-02
2.975000	1.254550e-02
2.980000	1.237480e-02
2.985000	1.220660e-02
2.990000	1.204110e-02
2.995000	1.187800e-02
3.000000	1.171740e-02
3.005000	1.155980e-02
3.010000	1.140450e-02
3.015000	1.125140e-02
3.020000	1.110050e-02
3.025000	1.095170e-02
3.030000	1.080500e-02
3.035000	1.066050e-02
3.040000	1.051790e-02
3.045000	1.037740e-02
3.050000	1.023890e-02
3.055000	1.010210e-02
3.060000	9.967360e-03
3.065000	9.834550e-03
3.070000	9.703670e-03
3.075000	9.574690e-03
3.080000	9.447600e-03
3.085000	9.322350e-03
3.090000	9.198920e-03
3.095000	9.077300e-03
3.100000	8.957440e-03
3.105000	8.839840e-03
3.110000	8.723850e-03
3.115000	8.609430e-03
3.120000	8.496570e-03
3.125000	8.385250e-03
3.130000	8.275450e-03
3.135000	8.167130e-03
3.140000	8.060300e-03
3.145000	7.954910e-03
3.150000	7.850960e-03
3.155000	7.748400e-03
3.160000	7.647240e-03
3.165000	7.547460e-03
3.170000	7.449040e-03
3.175000	7.351960e-03
3.180000	7.256200e-03
3.185000	7.161750e-03
3.190000	7.068580e-03
3.195000	6.976690e-03
3.200000	6.886050e-03
3.205000	6.796230e-03
3.210000	6.707730e-03
3.215000	6.620520e-03
3.220000	6.534600e-03
3.225000	6.449930e-03
3.230000	6.366510e-03
3.235000	6.284310e-03
3.240000	6.203330e-03
3.245000	6.123540e-03
3.250000	6.044930e-03
3.255000	5.968190e-03
3.260000	5.892440e-03
3.265000	5.817650e-03
3.270000	5.743820e-03
3.275000	5.670920e-03
3.280000	5.598950e-03
3.285000	5.527900e-03
3.290000	5.457760e-03
3.295000	5.388500e-03
3.300000	5.320130e-03
3.305000	5.252410e-03
3.310000	5.185600e-03
3.315000	5.119690e-03
3.320000	5.054660e-03
3.325000	4.990510e-03
3.330000	4.927230e-03
3.335000	4.864800e-03
3.340000	4.803220e-03
3.345000	4.742470e-03
3.350000	4.682540e-03
3.355000	4.623460e-03
3.360000	4.565180e-03
3.365000	4.507680e-03
3.370000	4.450950e-03
3.375000	4.394970e-03
3.380000	4.339750e-03
3.385000	4.285260e-03
3.390000	4.231510e-03
3.395000	4.178480e-03
3.400000	4.126160e-03
3.405000	4.074590e-03
3.410000	4.023710e-03
3.415000	3.973500e-03
3.420000	3.923960e-03
3.425000	3.875080e-03
3.430000	3.826840e-03
3.435000	3.779240e-03
3.440000	3.732280e-03
3.445000	3.685950e-03
